MASS=Monoisotopic
BEGIN IONS
TITLE=File: "C:\Users\chem-egg\Desktop\HCD Data\S_targeted NCE15_18.raw"; SpectrumID: "1575"; scans: "1,7,13,19,25,31,37,43,49,55,61,67,73,79,85,91,97,103,109,115,121,127,133,139,145,151,157,163,169,175,181,187,193,199,205,211,217,223,229,235,241,247,253,259,265,271,277,283,289,295,301,307,313,319,325,331,337,343,349,355,361,367,373,379,385,391,397,403,409,415,421,427,433,439,445,451,457,463,469,475,481,487,493,499,505,511,517,523,529,535,541,547,553,559,565,571,577,583,589"
PEPMASS=1796.75769 0.00000
CHARGE=2+
RTINSECONDS=300-480
SCANS=1-589
402.32468 7.72043
407.06021 7.63415
408.01185 267.799
412.04913 7.27994
413.95734 7.96424
416.48743 8.45236
419.05022 219.865
419.41986 8.25973
423.32217 7.30765
424.00700 113.377
424.98856 8.07301
426.02280 58.878
431.56577 7.02617
435.65915 8.08712
436.49609 7.61667
440.18930 12.5732
442.07745 59.577
443.99051 7.52993
447.76526 7.71043
458.07230 27.3414
458.56555 7.6074
462.20471 7.5341
464.34491 7.80507
464.85065 8.12984
470.49872 7.81556
471.42902 8.82006
472.90442 7.59218
473.62631 7.85927
474.08194 8.23905
474.29755 8.11841
474.40985 8.92918
475.14429 7.748
475.20206 7.65199
476.08283 32.9922
481.32449 7.90333
481.45709 7.50788
485.68704 8.45352
489.30441 9.22648
492.16622 20.8871
492.17529 16.0597
492.18262 13.3812
492.18839 161.229
492.20322 300.798
492.21176 196.355
492.22082 302.452
492.22835 141.516
492.23842 286.104
492.24788 339.212
492.25426 109.975
492.26299 93.189
492.27171 119.236
492.27723 63.8694
492.28470 35.9438
492.29540 30.1237
492.30172 32.7091
492.31293 8.97717
494.41135 9.1263
494.43964 8.06407
498.03235 56.6889
499.01699 145.863
501.96945 8.18127
502.42062 8.12534
504.03189 15.8289
515.38037 12.8413
516.08124 7.86048
522.04431 238.923
526.51044 7.86452
530.09380 105.814
531.09674 12.6177
534.65631 8.78254
536.55640 8.48289
538.03862 58.245
546.57373 8.4045
547.48041 8.57711
548.10387 61.1026
548.13611 8.01687
550.35919 9.14212
554.69916 14.0722
555.43030 8.56708
556.04889 71.1429
562.90839 8.58464
570.24982 7.96584
573.59393 8.13914
574.25586 7.92042
602.17657 8.13108
609.12104 49.3422
610.03473 22.456
610.05963 3394.49
610.08337 15.9401
611.06305 628.785
612.06462 93.4301
616.50330 8.15919
618.64288 11.1394
618.70477 7.95733
623.62189 8.39493
625.88531 8.75385
626.14923 15.9385
627.13218 2898.85
628.07116 197.951
628.13529 535.218
628.15155 9.32054
629.13738 57.4848
629.14453 12.8634
633.08713 113.648
634.07122 34.4351
634.83014 8.54791
638.78619 8.73447
640.73572 8.28919
646.27148 8.48668
650.06549 23.3396
651.91669 8.28819
655.08301 33.108
657.09854 188.917
664.15057 8.13813
668.84241 8.25627
671.83191 8.78929
673.09286 478.266
674.09613 20.7169
675.10681 13.1757
677.51953 8.63098
680.91162 11.6996
681.73590 9.14883
689.09061 43.8773
691.10587 32.8454
694.81207 9.74282
697.39069 8.4673
704.30029 8.3139
705.13690 8.59667
706.19220 8.21092
707.09889 865.771
708.10141 116.318
713.05518 15.6162
714.03760 187.641
714.12476 9.04432
716.03674 8.17082
717.35022 9.50514
720.49496 25.8801
720.50549 8.45844
720.52221 23.2116
720.55341 10.676
720.56275 36.1875
720.57717 29.8943
720.59796 8.58019
720.62164 9.66551
722.54816 15.7659
724.05310 8.22798
724.09193 742.143
725.09400 83.8154
730.03176 34.274
735.12372 8.87254
735.55908 8.63181
737.06526 143.993
739.91064 8.58923
744.98035 11.3106
745.84705 8.88893
747.11984 34.9803
752.16418 8.53298
753.05957 191.99
754.06104 14.5835
755.07404 20.5243
765.25397 8.49025
765.55505 9.38163
767.60480 9.23155
771.12912 35.4782
772.07550 12.523
772.13287 14.8696
783.44629 8.70107
787.12575 134.082
788.12598 17.1327
788.88391 8.89722
789.83850 8.65549
793.08203 8.91192
803.62506 17.5908
804.05798 15.7318
805.13558 50.2467
806.10516 16.983
818.98621 9.60113
822.41003 8.49931
828.06892 139.439
843.60895 16.0184
844.06580 13.986
848.10107 9.11093
851.09558 95.0688
860.15051 8.96963
860.88165 9.69379
867.09060 153.379
868.68665 10.2176
869.09528 14.5612
877.15833 21.0961
883.23804 10.3916
884.58160 9.3261
899.06995 9.03267
902.07599 8.90692
908.03802 16.7655
910.20386 14.0185
915.76868 8.98135
927.02539 8.94954
932.11206 18.7896
932.61163 15.2537
938.17273 15.8349
939.11309 2773.89
939.15869 17.4423
940.07269 12.621
940.11483 937.305
941.11830 189.078
941.19458 9.33272
944.22375 9.8223
949.49335 9.38446
954.15137 9.36017
956.18499 2070.57
956.55707 9.07472
957.12277 178.672
957.18807 798.785
958.12732 21.3034
958.19144 116.841
963.42914 8.86516
967.65261 300.668
968.11432 9.60877
968.15391 230.014
968.65524 115.557
969.15790 17.1633
970.63013 279.24
971.12990 263.969
971.63302 33.4717
972.13116 16.7185
973.14386 10.5937
976.20721 9.45816
978.13439 104.885
979.12023 239.665
979.63531 36.5011
980.12667 35.3461
980.63666 16.5949
981.13104 15.9407
989.67468 9.07618
996.09485 9.47203
997.04657 9.671
997.13407 30.1345
998.63300 22.7733
999.70288 9.52474
1002.14735 398.478
1003.14821 59.981
1007.63559 733.956
1008.13745 372.586
1008.63775 114.938
1009.13892 16.7584
1014.59198 9.49125
1018.14136 62.0552
1019.14410 14.7831
1020.15173 18.0632
1025.16589 9.11975
1027.64557 423.988
1028.14694 296.65
1028.64796 127.894
1029.14685 14.8817
1036.14880 38.7715
1040.01367 14.465
1043.08887 19.1759
1053.14531 1539.32
1054.14773 632.286
1055.15075 107.472
1055.64551 16.6672
1056.15241 41.4817
1058.09851 15.782
1059.08731 199.828
1059.88696 9.72756
1060.09143 9.61512
1064.06067 9.38743
1064.65122 162.838
1065.15359 121.194
1065.65434 38.8604
1066.65735 14.708
1067.62867 59.9892
1068.13000 24.8708
1068.63123 34.0912
1068.74023 9.81142
1069.14636 9.57145
1075.62781 18.4107
1077.41003 9.21484
1079.62488 9.92659
1082.11305 142.277
1087.15076 9.75864
1087.63342 15.1524
1093.15107 41.968
1094.15381 16.1095
1100.12866 13.6868
1104.63904 19.4775
1111.16202 91.166
1114.71326 9.41996
1116.17779 86.9061
1117.18018 19.8055
1132.18140 17.4999
1133.11128 154.558
1134.10852 21.4084
1140.17549 863.61
1140.67721 813.152
1141.17829 388.03
1141.68007 101.952
1141.93420 9.27326
1142.18054 17.2309
1143.15294 466.191
1143.65429 408.978
1144.15642 176.764
1144.65356 14.7446
1145.16370 13.9958
1146.55249 9.38067
1153.15918 15.2695
1160.38464 9.35595
1166.74805 11.0292
1167.32776 9.88583
1167.53516 9.84428
1171.40125 9.33266
1173.11768 142.208
1174.12244 20.7457
1174.29358 10.0512
1175.00378 9.52095
1176.75476 9.4669
1180.14502 33.8299
1180.15771 15.3837
1180.65918 20.2696
1188.45813 9.35136
1191.12705 266.989
1192.13205 40.2145
1196.14280 83.6578
1200.16933 137.441
1200.66984 80.6413
1201.17224 104.024
1204.19397 17.3925
1214.24634 9.56144
1217.17258 75.0286
1217.67261 17.1875
1232.15233 47.953
1236.80017 12.9117
1238.44958 10.3727
1240.15710 18.2694
1241.15506 32.1896
1254.30371 10.2278
1258.16077 19.8447
1262.20986 1700.75
1263.21164 908.208
1264.21525 124.324
1284.15840 1778.37
1284.76587 11.7274
1284.90344 9.80278
1285.16115 854.018
1286.16556 237.336
1287.16809 17.1666
1287.74915 9.53636
1288.17090 18.9851
1290.17078 20.2792
1292.69463 184.857
1293.19661 180.352
1293.69563 60.291
1295.85144 10.0968
1298.16309 18.7623
1299.67151 17.1202
1302.16906 54.3163
1307.67847 357.229
1308.17771 490.48
1308.67903 134.212
1309.17800 106.496
1309.56689 9.94019
1312.05774 10.33
1316.68457 19.7701
1317.18430 78.3092
1324.16580 169.677
1325.17328 39.1258
1326.17358 19.6427
1331.19568 16.6842
1333.18006 64.2238
1333.20532 10.1427
1333.67868 34.2526
1338.63525 11.3286
1342.17564 1272.51
1343.17870 623.063
1344.18083 136.355
1345.18542 13.2963
1345.80737 9.65412
1346.14966 15.4389
1347.19070 37.8037
1349.20190 16.5167
1353.98645 9.75278
1364.68679 29.6639
1365.19575 87.1755
1365.69768 30.9452
1367.12573 11.0134
1369.23071 10.3745
1373.18542 16.2491
1378.84229 14.495
1382.19514 45.1855
1388.14001 16.1237
1389.14136 17.396
1394.10876 9.79191
1397.17829 53.784
1397.68201 14.6951
1398.18925 478.053
1399.18982 245.978
1405.17712 13.4095
1407.13062 13.9807
1407.61853 10.1961
1409.91138 10.8843
1413.17090 17.804
1429.14832 9.54172
1445.15576 16.1431
1445.23572 17.4133
1453.02576 10.0488
1453.69385 18.6102
1454.19861 18.2271
1456.20835 194.643
1457.21637 289.659
1457.72580 125.681
1458.21979 208.593
1461.69614 42.2878
1462.17371 18.3089
1462.69849 18.3273
1463.16272 15.5036
1463.69958 19.6713
1472.20401 490.626
1472.70644 396.575
1473.20624 400.797
1473.70945 78.1952
1474.86096 10.4791
1479.15906 10.8793
1480.15906 10.8166
1481.20458 115.157
1481.71277 20.7374
1482.72620 9.8878
1484.13562 9.99511
1484.56116 10.2105
1486.15405 10.2678
1497.20068 16.9129
1498.20715 18.6978
1498.70313 17.6157
1502.18835 14.1829
1526.54382 12.2568
1529.21932 289.676
1529.71912 269.569
1530.22270 164.126
1530.72791 20.8385
1531.21851 19.9737
1545.19031 13.9148
1545.65710 9.90399
1546.22205 45.0023
1547.55737 10.2039
1549.11511 10.4486
1551.68884 21.3254
1553.67554 14.2069
1554.21680 24.1721
1554.52600 10.063
1558.51917 19.532
1559.19714 20.1358
1568.19958 10.4169
1568.49182 10.005
1569.20225 53.1974
1569.69869 101.954
1570.70056 18.0413
1574.89136 10.465
1577.69620 42.2362
1578.20410 44.2121
1578.70056 22.3377
1579.20178 19.9791
1584.86121 15.7279
1586.93774 23.7089
1588.69373 19.3553
1595.43018 16.2727
1595.86755 18.8998
1597.19507 21.1291
1597.90100 10.3586
1598.20081 19.7828
1599.92822 10.2682
1601.95325 23.496
1602.77820 10.1619
1605.95850 20.3527
1606.70605 15.537
1607.25606 1279.37
1607.68579 16.3432
1608.25799 740.812
1608.88025 20.0095
1609.25797 235.354
1609.54810 20.8238
1610.45945 61.8446
1611.44458 17.41
1612.44495 21.9429
1613.20963 1322.36
1614.21105 765.569
1614.71484 23.147
1614.87256 18.2946
1615.21244 268.095
1615.94189 42.1368
1616.20010 150.55
1616.44856 40.2324
1616.69087 47.4426
1616.95836 31.4515
1617.21277 19.9569
1617.44312 24.333
1620.19653 22.3006
1620.44385 21.9908
1621.74243 13.4564
1621.88965 35.4602
1622.21167 79.1081
1622.24027 160.357
1622.74780 91.5569
1623.23926 21.5047
1625.70017 67.0704
1626.21582 18.4933
1626.71228 25.8783
1627.54224 16.5195
1629.19836 18.3824
1630.21155 17.6832
1631.22021 57.9132
1632.22026 66.4237
1632.96313 17.9451
1634.21656 128.051
1634.45471 21.3369
1634.55139 51.7078
1634.72095 14.6578
1634.88770 21.5376
1635.21406 116.773
1635.89050 20.0607
1636.22610 42.0637
1639.97249 67.607
1640.22510 20.6463
1640.46777 23.0527
1640.56006 18.1668
1640.71046 40.1111
1641.21251 89.7519
1642.19943 58.2233
1643.86316 16.0347
1643.97713 47.4775
1644.22070 43.5348
1644.46443 65.0629
1644.72645 489.343
1644.96858 151.562
1645.22901 702.296
1645.46231 39.9712
1645.70386 14.3862
1645.72225 372.265
1645.76038 10.6607
1645.96090 69.5473
1646.22497 221.73
1646.73247 42.949
1646.88391 21.8537
1647.22339 18.0771
1647.55237 46.6764
1647.89148 21.956
1648.22702 102.789
1648.48474 39.1072
1648.53210 16.4617
1648.72162 232.779
1648.96133 228.332
1649.21078 511.725
1649.45920 253.32
1649.70922 523.339
1649.95667 514.56
1650.20775 378.192
1650.45590 159.834
1650.71354 192.161
1650.97095 74.9793
1651.21576 126.678
1652.46790 15.3635
1652.95246 75.7098
1653.21127 483.854
1653.45957 309.624
1653.71068 666.193
1653.95756 387.668
1654.21299 774.498
1654.45327 316.547
1654.71475 234.545
1654.96145 146.923
1655.21527 218.525
1655.46316 80.6014
1655.70508 22.3087
1655.72241 39.0306
1656.97253 24.3509
1657.19834 58.3434
1657.45873 47.8561
1657.96216 40.2313
1658.21540 55.3817
1658.45654 17.0091
1658.61877 23.4839
1658.70928 125.823
1658.96533 104.203
1659.21827 236.234
1659.46270 75.0113
1659.55869 146.207
1659.70938 90.2518
1659.89014 16.8492
1660.21795 214.483
1660.54395 11.5563
1660.89136 24.7778
1661.69690 31.537
1662.71326 39.6372
1662.95891 69.3307
1663.21383 88.6432
1663.46592 139.431
1663.71207 112.278
1663.96362 12.812
1664.19995 24.6556
1664.21912 49.0823
1664.45239 31.4415
1664.70813 22.494
1667.20068 14.0468
1667.21790 15.9385
1667.46069 23.102
1667.89673 12.8241
1667.96790 19.2598
1668.21672 59.8387
1668.48035 41.8983
1668.72898 47.5252
1672.22886 154.099
1672.56379 129.126
1672.89743 72.5986
1673.22646 216.954
1673.71619 36.3701
1673.90833 20.1096
1674.21460 20.7946
1674.71765 16.6262
1676.71326 40.1112
1676.73254 23.9677
1677.22129 32.8774
1677.23938 20.7633
1677.48421 46.6214
1677.72160 71.1445
1677.97252 42.4384
1678.23158 74.2382
1678.46741 261.719
1678.51196 11.1189
1678.71483 324.073
1678.97045 186.705
1679.21640 195.813
1679.46813 52.078
1680.52271 11.0125
1680.97583 15.6115
1681.73203 136.36
1681.99051 285.686
1682.23378 653.436
1682.48272 850.934
1682.72581 967.437
1682.97273 1324.18
1683.22129 1657.53
1683.34692 18.5238
1683.46957 1426.89
1683.68274 33.1033
1683.71907 1051.75
1683.97152 667.098
1684.22202 380.802
1684.47441 74.2179
1684.72400 16.8797
1685.73312 38.754
1685.99355 36.2859
1686.23135 267.818
1686.25220 74.1273
1686.47608 449.819
1686.71970 1039.72
1686.96896 2097.8
1687.21877 2952.33
1687.23755 50.948
1687.46905 2823.12
1687.71951 2908.56
1687.96936 2174.82
1688.22166 1895.92
1688.47206 987.012
1688.71939 485.349
1688.97108 446.877
1689.22463 164.513
1689.71204 39.5765
1690.71578 616.926
1690.96871 1066.38
1691.21778 1543.29
1691.46908 1688.2
1691.57755 45.9223
1691.71946 1574.06
1691.97224 1335.09
1692.22090 1051.03
1692.47231 526.696
1692.72242 551.474
1692.97334 451.713
1693.22101 568.73
1693.46966 349.621
1693.72513 228.698
1693.97273 50.7644
1694.22461 22.5117
1694.26221 14.5388
1694.71118 19.9399
1694.96827 119.461
1695.21286 135.872
1695.46172 145.305
1695.71738 104.021
1695.97147 88.9616
1696.23357 84.0422
1696.47338 174.754
1696.72046 170.823
1696.97489 222.778
1697.22777 600.389
1697.46981 258.723
1697.57104 225.882
1697.72522 319.521
1697.89954 10.9721
1697.97122 178.081
1698.22986 220.48
1698.47302 23.4667
1698.57214 51.6436
1698.88436 78.6943
1699.09998 11.0132
1699.22413 359.373
1699.55716 264.774
1699.86462 10.6916
1699.88613 228.438
1700.22981 194.576
1700.47424 20.4729
1700.72153 154.747
1700.97231 108.168
1701.22111 192.406
1701.44019 15.4658
1701.48071 34.9103
1701.73444 308.053
1701.97281 114.999
1702.24158 256.708
1702.46790 34.7934
1702.57048 73.403
1702.66333 10.5935
1702.73975 168.838
1702.90918 14.9987
1703.24196 127.318
1704.22917 106.379
1704.46033 12.3635
1704.89093 93.7603
1705.22376 197.847
1705.56201 26.8977
1705.88171 39.6563
1706.21167 20.7055
1706.55689 98.233
1706.71362 18.8559
1707.22339 23.9997
1707.46863 19.3118
1707.73023 63.7896
1709.74133 22.027
1709.98753 47.3204
1710.02063 40.1762
1710.23641 68.5037
1710.49194 20.1964
1710.55613 23.9174
1710.72510 21.0064
1710.74475 19.8692
1710.89148 11.4507
1711.22778 57.1382
1711.24512 25.8801
1711.52820 10.9023
1711.98682 24.7383
1712.22003 183.522
1712.73205 77.633
1712.88757 15.1355
1713.21851 17.4994
1714.22546 45.9674
1714.49292 57.9642
1714.72888 20.0871
1715.24028 40.7881
1715.49292 63.9093
1715.74572 132.335
1715.98415 431.925
1716.20923 14.8812
1716.23172 962.96
1716.47696 1408.49
1716.73069 1664.91
1716.98096 1237.16
1717.22959 900.478
1717.47833 609.99
1717.73373 133.328
1717.84290 10.7538
1717.98047 20.8277
1718.22607 137.415
1718.37695 10.8583
1718.47839 11.7798
1718.89136 38.1226
1719.49890 74.8555
1719.56128 11.2644
1719.75288 531.655
1719.99339 1434.58
1720.23812 1952.79
1720.25696 14.1445
1720.48308 4103.81
1720.73246 7945.68
1720.86377 11.6839
1720.98226 9128.68
1721.23219 8847.91
1721.48280 6992.5
1721.73318 4448.36
1721.98385 2669.61
1722.23388 1180.15
1722.48578 666.692
1722.73602 224.74
1722.98425 43.742
1723.23608 99.7923
1723.56151 62.585
1723.89192 35.134
1724.22786 457.121
1724.47926 2686.01
1724.73059 7496.99
1724.98102 10839.6
1725.09180 11.8115
1725.23094 10259.3
1725.48148 9032.54
1725.73208 6939.58
1725.98317 4376.61
1726.23311 2728.58
1726.48279 1661.22
1726.73567 956.949
1726.98590 439.326
1727.23711 452.097
1727.47888 22.4892
1727.73674 40.0004
1728.21216 11.1804
1728.24351 170.403
1728.48089 530.637
1728.72870 1659.7
1728.98034 2238.88
1729.23032 2541.19
1729.48005 2165.48
1729.73018 1438.02
1729.98314 960.362
1730.23363 754.734
1730.26672 14.6156
1730.48062 575.842
1730.73604 780.706
1730.98443 1018.49
1731.23236 894.836
1731.48412 684.597
1731.73399 315.497
1731.98350 205.595
1732.23206 202.873
1732.49207 22.3719
1733.59338 10.8642
1734.19861 17.5994
1734.24243 22.1167
1734.48945 41.4283
1734.73113 325.32
1734.88477 16.9803
1734.98529 480.872
1735.23274 635.961
1735.43835 10.2444
1735.48148 474.792
1735.73089 288.035
1735.98682 90.3308
1736.23584 54.3113
1736.49036 29.7731
1737.22703 61.4186
1737.56309 32.8695
1738.23083 44.5979
1738.73047 61.2431
1739.22423 153.219
1739.72279 102.219
1739.97595 13.4219
1740.22313 86.2214
1740.72974 24.0618
1741.58179 19.6391
1741.72649 61.3587
1741.96387 12.3409
1742.23125 194.236
1742.56128 21.7532
1742.72607 48.9427
1743.23132 22.2885
1743.56734 85.1619
1743.99316 18.7414
1744.22857 56.0461
1745.22278 20.6401
1747.24382 97.4865
1747.58697 298.987
1747.73943 58.7147
1747.91909 378.23
1748.25146 273.573
1748.48389 16.1087
1748.59299 78.0017
1748.92383 24.9173
1749.23900 374.034
1749.47876 47.6925
1749.57832 320.408
1749.73971 378.547
1749.89765 351.775
1749.99749 323.657
1750.23778 979.98
1750.48889 130.177
1750.57457 186.924
1750.71826 21.9729
1750.73870 84.9752
1750.91077 16.5702
1751.20422 10.0181
1751.23850 199.623
1751.99500 16.261
1753.23157 38.9191
1753.48853 42.9667
1753.74126 1158.05
1753.99148 2844.56
1754.24133 4291.03
1754.49174 4498.85
1754.74238 3968.78
1754.99378 2437.89
1755.11731 16.1599
1755.24325 1898.9
1755.48987 892.68
1755.57563 183.844
1755.74052 341.157
1755.90846 158.845
1756.00162 70.9086
1756.24228 500.342
1756.57279 187.002
1756.74072 13.3577
1756.90466 268.92
1757.23496 230.407
1757.56992 88.6674
1757.73827 391.836
1757.89832 25.2237
1757.99391 1551.95
1758.24279 8554.8
1758.49318 21124
1758.74401 27807.8
1758.99422 29314.4
1759.24421 25195
1759.49485 15669.5
1759.74539 9822.46
1759.99610 5792.28
1760.24630 2488.69
1760.49582 1148.18
1760.74475 223.197
1760.99811 235.082
1761.24259 64.0204
1761.49533 48.3257
1761.73853 30.5104
1762.00989 21.3148
1762.24231 3731.74
1762.49111 9937.23
1762.74230 13636.6
1762.89990 29.9848
1762.99270 15431.3
1763.24315 13573
1763.49277 9160.97
1763.57235 88.1718
1763.74445 5043.41
1763.88293 67.7141
1763.99422 3091.46
1764.24097 1709.01
1764.49079 517.729
1764.56067 13.2356
1764.57910 22.8306
1764.74442 288.106
1764.88135 21.4618
1764.99674 136.781
1765.23836 302.817
1765.49280 63.6516
1765.74053 28.8312
1765.99390 20.9931
1767.25122 20.6058
1768.24473 310.009
1768.49459 749.91
1768.74526 1162.02
1768.76465 15.7945
1768.99749 1157.96
1769.24524 1138.8
1769.49057 584.463
1769.55652 14.5236
1769.74622 206.378
1769.95996 10.5625
1769.99512 100.878
1770.24292 24.123
1771.22205 23.7084
1771.75293 16.2111
1772.98926 31.0225
1773.24841 14.7299
1773.90622 85.8297
1774.24667 135.156
1774.57751 101.979
1774.75513 43.2946
1774.90816 105.081
1775.25671 304.032
1775.57488 50.4904
1775.76357 99.3199
1775.90295 44.172
1776.24891 77.7182
1777.21985 17.5336
1777.55017 44.6104
1778.25830 20.5171
1781.90845 22.9978
1783.56325 31.4271
1785.25720 82.4505
1786.26098 137.756
1786.49878 19.8272
1786.99957 56.275
1787.25316 278.578
1787.50110 178.876
1787.59032 50.9375
1787.74759 293.333
1787.90137 76.8499
1788.00458 207.814
1788.24872 323.791
1788.49851 85.0541
1788.57947 24.4569
1788.75854 16.4839
1789.00159 42.0766
1789.23682 52.3413
1790.40027 25.6875
1790.50806 28.4086
1790.60571 16.7836
1791.44495 11.0386
1791.50036 1174.27
1791.75201 3446.64
1792.00288 4847.01
1792.25338 5537.94
1792.50342 5253.91
1792.75444 3205.52
1792.77393 10.5941
1793.00375 2081.95
1793.12952 22.6323
1793.25322 1147.41
1793.50548 401.117
1793.75230 117.004
1793.88318 23.691
1793.99170 13.5499
1794.01367 40.3424
1794.22428 41.669
1794.55005 57.0924
1794.74124 118.736
1794.76739 23.7648
1794.91284 14.929
1795.00879 12.0394
1795.24041 58.1296
1795.26827 38.8621
1795.58411 13.2763
1795.76389 64.8224
1796.00531 8841.15
1796.25479 25231.3
1796.50500 38127.6
1796.56519 14.8391
1796.75539 42155.2
1796.89417 13.0371
1797.00594 36056.3
1797.25587 25528.8
1797.50651 15400.1
1797.75662 8266.08
1798.00700 4130.17
1798.21082 13.9281
1798.25596 1912.81
1798.50548 616.817
1798.73364 12.7439
1798.75867 396.835
1799.00458 72.6485
1799.23267 14.7656
1799.25880 184.809
1799.50849 175.561
1799.75498 117.366
1800.01709 72.4588
1800.91553 45.4993
1801.25045 62.4548
1801.89411 38.1705
1802.22457 36.3807
1802.56070 64.9633
1802.89182 109.067
1806.24353 35.514
1806.57815 156.835
1806.91755 395.428
1807.24869 523.732
1807.57991 245.086
1807.91566 211.65
1808.22302 16.8864
1808.24352 92.2086
1808.56943 224.989
1808.90296 368.257
1809.23817 567.115
1809.57194 301.214
1809.90466 102.331
1810.23224 86.1353
1811.91479 40.7661
1812.24684 209.705
1812.58920 77.2751
1812.92175 21.6716
1813.25132 147.989
1813.90706 90.3706
1814.23963 166.437
1814.56894 290.543
1814.73648 45.3415
1814.90075 196.191
1815.24080 525.186
1815.74032 240.508
1815.90283 51.8679
1816.24915 35.486
1817.74761 201.595
1818.24994 81.0163
1818.74854 21.4795
1820.24292 21.8267
1820.89453 47.2939
1821.23743 19.8895
1822.23775 87.1068
1822.57324 53.9093
1826.91663 16.4544
1827.23531 66.805
1827.57300 20.846
1831.36768 11.4885
1833.23655 112.422
1833.56953 165.95
1833.90837 124.177
1834.23893 181.03
1834.57861 30.1758
1834.91478 41.2313
1836.21068 112.783
1837.22095 21.8188
1838.90466 23.7905
1839.24590 67.5728
1839.57654 17.3137
1841.57642 23.8323
1846.57727 64.0823
1846.91151 300.671
1847.24388 378.681
1847.57552 152.267
1847.89502 19.2706
1847.91602 202.211
1848.23532 70.4238
1848.55547 72.1137
1850.92786 44.079
1851.26208 21.9011
1851.92082 126.767
1852.21289 10.7817
1852.25400 165.968
1852.58131 217.054
1852.91771 88.7786
1853.24835 199.988
1853.57589 55.3543
1853.92086 85.6852
1854.22852 36.4424
1854.24951 48.2024
1856.93416 278.58
1857.26877 606.929
1857.60188 588.319
1857.93345 631.91
1858.26742 294.019
1858.60422 161.793
1858.92517 305.299
1859.25503 1081.06
1859.47241 10.6012
1859.58921 884.421
1859.92192 764.974
1860.25354 630.608
1860.58976 329.953
1860.92125 153.617
1861.91309 17.9942
1864.25696 36.7935
1865.22831 165.187
1865.59058 44.9157
1865.92497 40.793
1866.24578 180.511
1866.58921 110.709
1866.92127 129.786
1871.25686 59.406
1871.58154 62.0046
1871.75220 43.2375
1871.91759 57.2212
1872.25545 399.044
1872.59192 23.1669
1872.75924 72.2128
1873.25500 180.097
1873.56887 102.344
1873.90385 90.7668
1874.24360 43.2756
1876.91333 44.7364
1877.24768 22.41
1878.25757 21.5281
1878.91196 91.3857
1879.24029 164.772
1879.56116 42.7329
1879.58044 22.1654
1879.90308 97.941
1880.25366 59.242
1883.58851 76.9074
1883.91982 153.639
1884.25318 317.391
1884.58490 329.675
1884.91863 120.491
1885.24620 49.0358
1885.57642 20.6275
1886.24182 26.9672
1891.24658 41.0799
1892.85535 10.9001
1893.23607 94.9123
1895.24134 91.3206
1896.24072 44.5355
1896.92901 184.602
1897.26245 489.298
1897.59642 560.609
1897.93155 613.321
1898.26163 512.337
1898.57931 253.066
1898.60913 11.0935
1898.92427 70.7269
1899.24936 122.109
1899.26990 17.2075
1899.60889 17.1605
1902.72437 39.6344
1903.24009 188.424
1903.73462 18.716
1904.24084 62.8754
1906.89722 22.4413
1910.25903 42.9297
1911.25977 21.2215
1911.59294 64.1187
1911.73738 72.7254
1912.23671 110.29
1912.73777 157.61
1913.23832 77.2371
1913.74194 21.2005
1915.92761 44.6416
1916.26587 205.414
1916.60283 331.273
1916.93683 487.278
1917.27109 522.212
1917.60385 304.51
1917.91709 80.2321
1917.93996 63.5664
1918.25658 67.5273
1918.59460 51.6855
1921.59424 48.4464
1921.93155 137.924
1921.95740 12.2012
1922.26304 260.556
1922.60401 357.33
1922.93230 159.941
1923.26157 92.925
1923.58573 135.57
1923.92042 531.412
1924.25401 469.7
1924.58559 552.664
1924.91805 256.756
1925.25378 239.76
1925.58217 131.994
1927.25635 24.9287
1928.90879 95.4875
1929.24619 192.298
1929.58756 216.004
1929.91607 138.168
1930.25706 96.9442
1930.58863 101.402
1930.90515 46.6801
1935.91296 20.1048
1936.31025 219.953
1936.58130 43.1303
1936.92334 22.307
1937.28254 100.406
1937.30770 150.989
1937.59167 62.6442
1937.91925 72.7006
1938.28510 71.9688
1942.25991 558.434
1942.59448 23.0262
1942.92545 90.5821
1943.23840 31.8539
1943.26047 702.507
1943.58994 373.98
1943.80298 12.0166
1943.92274 309.178
1944.26373 330.936
1944.58150 118.933
1945.27173 17.1789
1947.27707 198.981
1947.78353 320.809
1948.27841 285.217
1948.58915 107.359
1948.78377 74.3506
1948.92540 211.533
1949.25785 189.621
1949.27881 21.6176
1951.74573 29.0329
1952.26953 11.3686
1960.26013 50.2803
1960.94841 59.1084
1961.26949 245.511
1961.62317 17.9174
1961.94019 34.8299
1962.26428 22.573
1966.61636 310.347
1966.95011 649.078
1967.28610 927.916
1967.62030 853.169
1967.94969 699.698
1968.28223 583.031
1968.60836 216.549
1969.24865 60.0164
1969.27014 127.459
1969.57776 48.2493
1970.26064 141.568
1970.76127 63.4543
1970.91504 21.5679
1971.26132 117.906
1971.76107 65.82
1973.26013 24.909
1973.59302 45.0285
1973.93195 442.887
1974.26737 704.781
1974.60215 878.021
1974.93560 813.064
1975.26806 823.628
1975.59578 461.669
1975.92941 339.835
1976.25598 56.3512
1976.59253 25.53
1976.91724 47.8527
1977.23804 14.638
1979.26331 44.8137
1980.91644 195.25
1981.26161 343.238
1981.58886 374.223
1981.92797 247.451
1982.26412 116.025
1982.60693 27.5125
1985.92407 25.4464
1986.25834 106.719
1986.58934 113.665
1986.92796 374.012
1987.26312 474.465
1987.59910 221.785
1987.73718 33.0459
1987.76164 146.204
1987.78210 20.5308
1987.93488 121.254
1988.26413 375.787
1988.60571 20.7594
1988.76335 75.4194
1989.26074 38.4442
1990.27771 40.0458
1992.24695 43.4448
1993.27028 154.276
1993.60489 390.836
1993.94230 548.006
1994.26971 508.205
1994.61085 396.261
1994.93730 111.59
1995.27136 47.7512
2002.24988 43.7621
2009.25867 43.4599
2012.92615 24.9982
2014.92188 45.4935
2016.26812 169.351
2017.26794 25.1141
2017.94983 10.0103
2018.25549 25.3324
2018.93542 48.2312
2019.24219 24.1834
2019.60901 24.4213
2019.91888 68.9175
2020.26407 56.3314
2024.94678 16.8633
2025.26135 44.8791
2025.60142 147.897
2025.92943 512.639
2026.25898 628.769
2026.59545 653.625
2026.92649 310.59
2027.26399 209.708
2027.59460 51.1011
2028.27075 55.7003
2030.25940 21.419
2030.93222 49.2159
2031.27139 400.15
2031.60782 856.531
2031.92126 14.7857
2031.94513 889.221
2032.28026 836.182
2032.61064 585.812
2032.94756 301.06
2033.28577 108.543
2036.61108 63.5057
2036.94276 204.729
2037.27466 177.589
2037.61349 283.13
2037.94695 168.325
2038.27727 96.4765
2039.27783 17.9832
2040.26355 23.2457
2040.91272 48.2001
2041.23389 44.2946
2042.48438 13.0204
2042.93091 24.1374
2043.80359 10.6468
2044.27759 67.1126
2044.77441 31.042
2045.25220 19.1237
2045.27951 163.267
2045.77954 22.8792
2046.26169 100.186
2046.77563 37.2539
2046.93201 24.2655
2047.60352 44.3117
2051.57178 16.3309
2052.27344 46.3053
2053.26744 72.3785
2053.94873 14.3096
2055.94043 23.3948
2056.28871 227.675
2057.28627 168.51
2057.59644 23.7046
2058.27305 201.79
2058.60688 229.471
2058.94180 140.62
2059.26356 193.053
2059.60156 55.1499
2060.27368 22.9546
2060.53809 11.1598
2060.60693 16.0982
2060.94434 22.6649
2062.00781 11.1348
2063.60547 50.1108
2063.93113 189.422
2064.26628 173.537
2064.60606 185.088
2064.93856 84.751
2065.60522 51.2045
2068.26587 23.699
2068.61987 11.0024
2069.27002 51.4845
2069.59888 92.9291
2069.93203 56.8932
2069.96436 29.8526
2070.27692 68.8217
2070.60452 151.402
2070.94214 43.1021
2071.27710 23.253
2072.27710 25.6481
2072.59863 19.272
2074.96802 24.1912
2075.27588 42.8433
2075.94484 244.993
2076.27973 838.535
2076.61197 997.785
2076.75684 19.3664
2076.94603 939.753
2077.27617 704.908
2077.61346 506.291
2077.94502 142.448
2078.27002 40.6348
2078.92505 16.4964
2081.62856 197.309
2081.96245 483.512
2082.29735 757.007
2082.63132 962.509
2082.96637 552.638
2083.30054 420.74
2083.62302 70.2991
2083.95379 145.418
2084.26887 44.9875
2084.59617 85.8735
2084.75903 36.5178
2085.26208 229.425
2085.59074 64.4627
2085.92676 23.059
2086.26758 24.4567
2086.59692 39.7341
2090.59391 299.65
2090.93489 256.086
2091.27083 498.947
2091.60258 221.533
2091.93881 183.504
2092.27783 43.6276
2092.61499 23.8376
2095.93202 96.3017
2096.27355 182.823
2096.61555 421.972
2096.93847 237.69
2097.28060 163.114
2097.60788 33.7983
2097.93286 23.3813
2101.47144 11.0436
2101.93872 18.2202
2102.27832 42.7238
2102.61475 74.1301
2102.93457 15.0672
2103.27222 43.3136
2104.26514 21.3677
2108.61884 97.7472
2108.95410 155.896
2109.28320 235.728
2109.61730 64.0397
2111.29907 25.7215
2111.78955 37.0881
2113.29395 27.7424
2114.28345 77.7968
2114.61269 169.925
2114.95205 137.731
2115.28057 67.4673
2115.61778 77.0734
2118.26245 23.1629
2118.60889 22.4758
2119.80249 24.7956
2120.29794 195.059
2120.80107 110.007
2121.29999 135.298
2122.60547 19.1002
2128.93408 40.5353
2129.24194 33.4308
2129.59497 48.8754
2129.92871 18.9097
2130.27783 44.4111
2131.29541 23.6496
2133.28369 21.846
2134.78188 69.7312
2135.28376 335.582
2135.61809 370.684
2135.78739 109.568
2135.94293 581.608
2136.27900 687.072
2136.61299 325.739
2136.93504 213.883
2137.26514 45.0068
2140.61049 210.656
2140.94668 323.389
2141.28899 758.292
2141.62329 1377.24
2141.95821 897.212
2142.29053 701.387
2142.62205 384.123
2142.96777 70.1961
2143.14282 11.8169
2143.29447 126.735
2146.27759 25.476
2146.62849 177.134
2146.96174 344.541
2147.29826 431.933
2147.62326 288.319
2147.95596 237.811
2148.27368 57.2864
2156.26465 22.3807
2160.78223 46.9171
2161.27588 40.0897
2167.62061 41.4644
2168.28540 16.7877
2173.26919 116.09
2173.61491 90.3309
2173.77734 24.0509
2173.94865 101.487
2174.28172 190.904
2174.61606 83.6788
2174.76563 22.4478
2174.95361 18.7468
2178.94678 19.6574
2179.27441 19.7059
2179.63135 44.4937
2179.95615 229.501
2180.28898 205.562
2180.62112 81.2896
2181.28540 49.2564
2184.28662 15.485
2185.63012 281.466
2185.96478 781.059
2186.29549 1059.79
2186.62777 897.82
2186.96042 700.714
2187.29120 479.112
2187.62432 249.878
2187.95749 94.5464
2188.29688 30.1703
2191.30793 146.249
2191.64377 632.849
2191.97970 618.51
2192.31569 1019.78
2192.64733 758.837
2192.97636 634.777
2193.01465 12.7609
2193.10150 23.2425
2193.13859 52.512
2193.17579 24.1101
2193.20825 14.0804
2193.27002 13.4337
2193.30537 440.68
2193.39453 12.3348
2193.63966 78.2733
2193.96436 18.5711
2197.61499 14.7208
2199.29297 24.7725
2200.79883 40.8991
2209.30573 74.5029
2210.29252 92.452
2214.48364 11.3988
2218.30249 40.7304
2218.63184 68.2884
2219.98193 16.7172
2221.67725 11.1261
2223.65259 11.323
2223.96459 290.472
2224.29117 256.658
2224.31714 71.0319
2224.63263 309.647
2224.96955 135.197
2225.28834 38.8076
2225.63647 41.4336
2231.78369 23.0442
2242.96338 34.2643
2243.30348 78.8346
2243.64702 74.3378
2243.97925 25.2313
2248.30444 43.6647
2248.64258 43.6943
2248.96094 22.0131
2249.30249 21.1217
2250.78608 66.2597
2284.82581 147.574
2285.32682 182.019
2285.83410 72.2068
2290.29761 48.4647
2292.30859 11.9941
2293.32715 41.4069
2293.64526 16.3321
2294.31982 44.809
2294.99609 35.9681
2299.80354 65.3002
2300.30340 65.077
2300.79716 91.4722
2301.88110 10.946
2302.92944 11.1347
2304.54126 11.5692
2308.28540 25.6383
2310.27539 23.3902
2314.32520 10.8539
2335.34131 11.012
2353.03711 11.6096
2374.32345 77.4932
2376.79709 254.874
2377.29711 217.463
2377.80396 48.9641
2384.79735 125.103
2385.30303 96.7205
2385.80367 110.851
2386.29785 24.3196
2413.80077 123.805
2414.29956 53.8559
2434.78833 41.9754
2442.82495 21.5072
2443.31982 25.5716
2444.32129 40.6678
2448.84302 56.6641
2449.84839 55.1481
2450.34473 40.354
2451.82212 163.457
2452.32420 359.437
2452.82032 375.109
2453.32208 177.337
2453.83497 53.0229
2454.33070 93.2345
2479.99048 11.4156
2489.32486 97.6203
2490.31250 36.2552
2490.35010 18.2624
2499.34668 11.2766
2509.33716 18.3644
2509.83618 23.2021
2510.34110 82.7618
2538.63916 12.4151
2547.06226 11.9854
2548.36914 21.9785
2587.73315 13.7482
2588.22217 16.6463
2623.57788 12.0787
2624.83154 52.0035
2625.35010 50.5513
2678.76025 12.3227
2684.02661 11.3497
2684.16016 12.3765
2702.58228 10.9382
2754.38721 13.1163
2755.09033 11.7189
2765.45776 11.3999
2777.01416 12.0642
2791.48682 11.6542
2818.81250 11.0563
2832.47632 11.6114
2873.36377 11.6045
2877.16724 12.7932
2893.71924 12.441
2955.25830 11.5648
3066.30933 12.8782
3071.23657 11.7691
3074.63306 12.0551
3075.53101 12.397
3116.13745 11.9589
3138.33008 11.386
3146.36426 13.4683
3174.81348 13.0596
3202.57739 13.7084
3262.97192 12.3808
3282.86792 11.6655
3308.15527 11.6061
3394.45947 12.7663
3396.24902 12.7535
3436.14404 12.0842
3551.90186 12.369
3558.29053 12.0216
3585.10132 12.272
3610.83179 12.2918
3674.84204 12.3253
3691.05957 13.167
3711.19409 12.592
3767.79077 11.4601
3841.66992 12.6689
3903.36499 12.0022
3929.63721 12.4431
3988.26099 18.0778
4120.76514 13.2662
4179.21582 12.5077
4211.55664 13.4203
4223.69531 11.7633
4259.46387 12.5832
4268.16162 13.9676
4271.31396 12.1072
4310.29053 13.3977
4388.92236 13.4803
4393.42529 13.5854
4464.97412 24.33
4471.35352 13.5841
4482.78369 14.3052
4566.77832 14.0109
4701.25830 12.9909
4767.41309 14.7187
4787.47949 12.9783
4827.85547 12.2842
4828.01709 12.8187
4856.76855 12.924
4924.61719 14.4255
5028.00342 18.6034
5064.04492 14.7592
5111.28564 13.4076
5142.18750 13.9083
5158.59717 19.5358
5246.83057 12.7422
5250.43555 13.5964
5258.52637 14.0207
5355.14551 13.8412
5395.98828 12.9109
5400.31885 13.4544
5424.60693 13.2327
5493.85303 13.1796
5576.03662 13.983
5658.27246 13.9645
5730.99658 12.987
5771.87891 14.5457
5792.14551 13.6107
5846.53027 13.5191
5959.17236 14.184
5975.64990 18.2206
END IONS

BEGIN IONS
TITLE=File: "C:\Users\chem-egg\Desktop\HCD Data\S_targeted NCE15_18.raw"; SpectrumID: "1576"; scans: "2,8,14,20,26,32,38,44,50,56,62,68,74,80,86,92,98,104,110,116,122,128,134,140,146,152,158,164,170,176,182,188,194,200,206,212,218,224,230,236,242,248,254,260,266,272,278,284,290,296,302,308,314,320,326,332,338,344,350,356,362,368,374,380,386,392,398,404,410,416,422,428,434,440,446,452,458,464,470,476,482,488,494,500,506,512,518,524,530,536,542,548,554,560,566,572,578,584,590"
PEPMASS=2396.00269 0.00000
CHARGE=2+
RTINSECONDS=300-480
SCANS=2-590
402.56616 8.88279
402.99585 26.2766
403.96533 8.75175
408.01197 247.805
410.21017 8.34777
417.21640 8.89676
417.58658 8.37486
419.05022 69.6686
419.31445 8.66523
419.99945 9.31352
424.00744 52.8131
426.02245 74.685
427.18140 9.05176
429.48846 9.29717
430.93445 9.28082
433.71204 8.59691
433.97577 8.65627
437.01477 8.86645
440.14459 9.29075
440.33475 8.50345
442.01849 12.2493
442.07593 13.7102
444.65033 9.17359
444.66489 9.59139
446.49435 8.63795
450.06961 8.87646
450.79398 9.11616
452.76907 9.9871
454.06303 17.7063
457.38565 10.5133
457.96967 8.47606
458.00919 8.81852
458.07120 17.5992
465.03900 10.0434
465.74313 8.77985
473.11887 10.1106
477.35895 9.83917
479.63763 9.08165
480.63339 9.04319
484.14026 9.37496
484.36246 12.4574
492.14127 10.7119
492.15732 41.8904
492.17054 66.1569
492.17922 41.6707
492.18604 9.13582
492.19376 168.028
492.19916 169.425
492.20749 184.672
492.21626 325.849
492.22431 270.845
492.23431 185.238
492.24303 342.154
492.25306 287.239
492.26196 296.44
492.26958 50.392
492.27622 128.865
492.28252 168.012
492.28968 42.8073
492.29910 51.7894
496.13644 8.90656
498.03287 16.1297
499.01683 96.9774
502.03088 9.68927
504.03340 30.7307
504.24350 9.71321
505.20200 9.54373
505.26913 9.42159
510.19638 9.24146
520.02753 11.1532
521.16199 9.48221
521.74139 9.18167
522.04393 278.569
522.69342 8.92107
523.04871 12.9655
528.30804 10.1409
529.26544 9.25023
530.09241 16.5195
534.16296 9.09962
534.17566 12.6067
537.63721 9.08261
538.03825 54.5337
539.46283 10.4194
541.90027 9.82242
545.73840 9.0554
546.26752 10.1494
546.45825 9.08056
548.10437 15.5301
548.73969 9.19817
549.21234 9.6501
550.57965 9.44498
551.93707 11.4494
556.04895 18.3509
560.06494 10.1692
561.72858 10.5448
578.98224 16.5516
584.04712 9.46109
585.95154 9.48545
589.32690 9.72262
591.73090 11.1933
601.09900 9.1165
602.01028 51.386
604.43158 9.60949
610.05977 882.174
611.06304 101.937
617.13300 9.82344
620.01880 13.9759
625.47040 10.9583
626.25751 9.49155
626.35272 9.62179
627.13294 626.285
628.07102 289.517
628.13551 57.8268
629.07446 16.0958
630.11328 9.96067
633.08711 74.0897
634.07136 111.354
637.90472 9.6075
642.22412 9.82068
645.62567 10.4849
650.06754 62.2226
650.39801 9.63547
651.09790 16.6979
652.08051 19.9349
657.09832 113.369
662.10767 9.90427
663.73352 9.74153
673.09409 280.704
674.09501 32.0983
674.57495 10.0954
674.59662 10.4555
675.10790 74.7599
679.45001 9.67778
682.81818 9.97869
688.08942 10.9368
689.08954 21.1359
691.10354 126.838
703.58075 11.9238
707.09951 311.469
708.10156 27.0174
714.03758 334.725
714.32513 9.82943
714.69891 10.7532
716.04431 14.198
716.20148 10.7374
720.43195 10.0597
720.44952 20.8296
720.46454 9.90459
720.47617 24.729
720.49059 48.9425
720.49969 14.1627
720.51874 43.3644
720.52947 32.9858
720.54187 17.7737
720.55407 33.359
720.56927 22.197
720.57764 10.5542
720.59859 20.1851
720.66992 11.1899
723.13812 10.0103
724.09178 544.834
725.09419 52.0917
730.03241 62.2121
731.60211 10.1589
732.04795 48.5246
737.06544 127.829
747.11826 85.921
749.27545 10.6506
751.63092 11.3665
753.06038 157.018
753.16687 9.74371
754.79401 9.77256
755.07715 44.425
764.09857 15.092
771.13216 58.7112
772.13135 16.7502
773.60071 10.071
776.92993 10.0264
783.50330 9.9097
787.12560 183.635
788.12793 14.9497
794.54187 10.2532
798.43823 10.0355
804.05884 90.7452
805.13647 122.504
805.47363 10.3114
811.89154 10.3058
825.50146 11.4456
828.07032 194.963
829.75464 10.1848
832.03711 10.8095
832.71344 10.9349
841.02075 11.3571
841.26196 10.3117
844.01691 10.6576
849.04663 10.0693
851.09749 154.979
859.14783 14.5804
867.09119 119.818
877.15773 33.1977
878.16351 15.3348
892.26550 11.4196
899.81909 10.709
900.17572 11.1904
908.03480 32.0896
911.58203 10.4003
918.09088 15.6264
918.95166 10.7009
931.06488 21.0875
939.11288 1876.43
940.09918 10.8037
940.11589 505.209
941.11824 114.06
945.91504 10.3257
947.05853 17.9693
949.07056 16.8382
956.18529 1089.72
957.12485 474.81
957.18793 325.402
958.12638 107.022
958.19265 29.0859
978.13757 15.1039
979.11960 308.774
981.94879 10.6446
995.72253 10.2665
997.12920 52.1231
1002.14733 229.864
1003.14819 15.7127
1013.78870 10.5059
1020.15564 60.598
1020.62140 11.3836
1021.09387 11.1926
1021.46320 14.5252
1021.91113 11.0871
1043.08948 23.238
1047.11841 10.7673
1053.14537 1171.15
1054.14861 416.199
1055.14909 75.6492
1056.75098 12.7129
1059.08538 216.091
1060.09265 22.9878
1061.09204 19.8773
1077.09607 42.2807
1079.45044 10.6214
1082.11226 44.0153
1083.12000 14.7566
1090.70361 10.3272
1093.15100 107.417
1100.12256 17.6412
1105.37195 11.4785
1111.16209 242.604
1112.80042 11.3195
1116.17711 69.3538
1133.11175 101.433
1151.83533 12.3554
1157.45764 11.8443
1158.12085 20.5493
1173.11813 209.077
1174.11780 17.0156
1188.23962 10.9449
1190.25049 10.8655
1191.12757 280.196
1192.13072 72.6746
1194.88000 11.473
1196.14539 55.6405
1197.14868 18.8408
1201.73303 11.8506
1206.79663 10.6908
1212.43384 11.3277
1224.25220 11.0583
1225.65247 12.3826
1244.20020 18.8748
1247.51025 11.8763
1250.95996 12.4171
1261.81287 10.9181
1262.20928 512.254
1263.21269 229.172
1271.61804 11.7665
1284.15950 446.983
1285.16103 159.251
1286.16602 20.031
1300.97986 11.206
1308.17428 39.8334
1314.83936 11.9709
1324.16603 57.8803
1330.28113 11.8065
1331.84766 10.7997
1342.17680 387.392
1343.17970 157.486
1373.41528 12.0538
1391.33081 11.0324
1397.14038 11.4455
1398.18909 16.8822
1400.19666 15.968
1405.27710 14.1535
1409.94824 12.5051
1413.02576 11.886
1422.28699 11.589
1437.79114 11.9129
1456.20680 64.1421
1462.16589 20.9372
1462.47656 11.3204
1468.80164 13.737
1473.38464 11.203
1496.17615 16.5586
1502.17126 18.8379
1531.31848 12.5662
1563.33008 11.4953
1565.95874 11.8148
1567.15320 11.6248
1568.10754 11.8873
1575.31079 11.817
1579.17542 11.411
1613.20819 107.887
1631.22595 16.3743
1647.08850 12.2708
1653.21960 19.1864
1679.19690 11.5912
1712.18994 12.0713
1742.07422 12.3373
1770.66370 12.3811
1772.55652 12.0768
1779.21716 12.2283
1793.30603 12.2049
1799.20190 12.1842
1805.63782 14.3347
1806.00452 12.366
1808.03674 13.4991
1882.78552 11.8847
1904.24402 13.4812
1917.65405 13.684
1921.87488 12.3487
1948.83887 12.4102
1981.82751 13.2472
1991.56580 16.2408
1995.25049 15.5423
1998.83337 12.3504
2006.60828 12.9436
2007.56165 18.9702
2024.91736 38.0198
2027.24500 18.0226
2045.59058 33.1956
2054.55762 23.0728
2058.92871 17.824
2063.68677 13.5727
2065.18799 13.0005
2065.89551 23.4791
2070.89380 18.8143
2073.55591 19.2261
2077.27979 58.9956
2080.26050 38.7672
2089.92725 38.2477
2091.25830 15.5715
2096.26489 50.175
2096.92896 23.0547
2097.90661 59.0792
2098.24585 41.2919
2098.57568 41.804
2098.93530 18.5762
2101.97559 13.1256
2102.93364 85.9932
2103.26709 42.4321
2103.92407 19.3476
2104.59253 20.687
2106.33594 31.4382
2109.23242 19.1452
2110.56348 19.6001
2111.22885 34.3661
2111.57739 19.1608
2111.90869 22.0204
2116.90234 24.3967
2117.59521 43.0915
2121.26196 20.4088
2122.58130 19.0896
2123.25391 21.2156
2123.58398 39.8333
2125.25366 22.9078
2126.60889 12.2696
2127.93359 15.785
2128.25366 17.8698
2128.93589 42.8618
2129.25830 24.6113
2129.59489 96.9705
2130.24951 21.6739
2130.99805 12.4851
2131.27124 21.2637
2134.33545 13.9088
2134.60522 25.2549
2135.92913 42.6488
2136.27627 62.9111
2136.60034 36.8645
2140.91577 19.3979
2141.26816 136.621
2141.61012 44.437
2141.94759 88.911
2142.28113 169.214
2142.60646 84.3892
2142.64624 13.2467
2142.92701 58.2741
2142.95190 20.0122
2143.59082 19.7421
2143.61328 39.222
2143.90112 21.1493
2144.59668 21.9052
2147.26563 19.3214
2147.60322 63.7952
2147.93742 81.6795
2148.27051 52.605
2148.59586 37.0017
2148.92661 112.731
2149.23462 19.4
2149.25673 59.67
2149.58907 218.596
2149.91773 132.015
2151.07227 12.2723
2153.61789 37.6776
2153.92073 92.9029
2154.25565 171.747
2154.59497 160.746
2154.91925 110.844
2154.97046 15.7632
2155.25745 223.958
2155.60356 223.899
2155.92274 137.371
2156.25656 151.66
2156.28125 15.9668
2156.59217 99.2359
2158.28369 45.3058
2159.91968 18.6935
2160.25635 81.6878
2160.59180 24.0871
2160.92683 203.633
2161.26133 77.6331
2161.59729 170.983
2161.92835 84.6971
2162.26135 78.7723
2162.58328 75.2077
2162.91823 38.0778
2163.25635 23.2196
2163.93994 24.5001
2165.90405 19.6089
2166.26489 18.7225
2166.92673 76.8589
2167.25454 126.867
2167.60258 95.4282
2167.92726 103.461
2168.27403 131.389
2168.60172 66.6607
2168.94175 89.9122
2171.91675 20.7877
2173.27366 231.631
2173.60071 227.13
2173.62744 17.3567
2173.94464 144.492
2174.27199 209.037
2174.61108 70.1034
2174.95532 50.7338
2175.26050 17.2461
2178.94214 46.0818
2179.27333 151.375
2179.61938 21.205
2179.95837 37.8301
2180.29284 42.3853
2180.58496 22.0873
2180.93286 38.784
2184.62158 20.9691
2184.94575 62.7422
2185.28386 115.263
2185.62890 81.2125
2185.95972 45.9497
2186.28784 38.6748
2186.62017 134.5
2186.95062 38.6478
2187.27148 19.2613
2187.61401 42.5623
2187.95218 118.603
2188.26514 12.4689
2188.60583 68.33
2190.61132 63.0905
2190.94596 41.0312
2191.26465 37.2489
2191.96440 129.082
2192.28482 77.4237
2192.62517 404.532
2192.96502 550.601
2192.99072 15.0702
2193.05148 53.2991
2193.11061 27.1554
2193.15089 58.1207
2193.18190 42.6925
2193.23531 42.4295
2193.28846 396.633
2193.61495 459.23
2193.93871 235.94
2194.27152 296.423
2194.60448 241.343
2194.94215 161.78
2195.26150 118.579
2195.28662 17.0993
2197.61822 109.881
2197.96149 244.199
2198.28400 208.551
2198.61787 362.886
2198.64282 16.4103
2198.95110 417.915
2199.27353 758.442
2199.60156 1003.48
2199.93994 737.688
2200.27066 828.777
2200.60311 450.9
2200.94167 372.159
2201.25638 119.757
2201.28245 87.8176
2201.60827 86.0889
2203.27734 42.0086
2203.60938 23.2632
2203.95046 58.5139
2204.27116 199.472
2204.59770 457.289
2204.93974 718.132
2205.26789 693.25
2205.60681 722.145
2205.93850 674.273
2206.26993 605.987
2206.61176 469.277
2206.94182 222.707
2207.27572 158.401
2207.60481 124.15
2207.93834 177.424
2208.27930 49.9125
2208.60669 21.9276
2209.92446 60.7413
2210.26647 114.57
2210.60150 123.558
2210.93869 82.6602
2211.27456 226.392
2211.60606 180.048
2211.93987 241.216
2212.27047 371.778
2212.60782 260.446
2212.94293 375.858
2213.27220 287.258
2213.60764 135.404
2213.93728 99.373
2214.28418 19.0138
2217.27842 148.184
2217.60737 180.858
2217.94980 377.186
2218.28511 338.845
2218.61397 261.672
2218.94425 170.446
2219.28634 137.956
2219.95581 38.1617
2220.27319 20.5495
2222.93626 64.8591
2223.25293 23.8109
2223.61182 80.6647
2223.96449 108.386
2224.29096 164.34
2224.63569 146.584
2224.96596 163.119
2225.31836 32.8794
2225.62720 39.6579
2225.95483 16.6823
2229.29150 36.3005
2229.62817 43.1353
2229.96366 102.969
2230.30206 184.907
2230.63691 128.062
2230.97754 40.682
2231.31006 41.2372
2232.94556 22.3133
2234.96059 77.7248
2235.30343 114.43
2235.62841 237.448
2235.96786 110.954
2236.29687 129.998
2236.63354 23.6498
2236.96413 99.0919
2237.27479 61.2065
2237.30296 133.366
2237.64518 164.957
2237.95824 221.963
2238.28493 263.268
2238.61420 462.003
2238.95186 457.924
2239.28641 273.831
2239.62181 98.2175
2239.95477 147.049
2240.29736 23.5442
2241.28125 41.6581
2241.63672 40.753
2242.29980 18.056
2242.64640 184.808
2242.97548 683.043
2243.31126 1077.2
2243.60211 79.7959
2243.63560 1221.58
2243.95970 1640.66
2244.28996 1951.22
2244.62118 2434.99
2244.95388 2017.79
2245.28955 1752.22
2245.61478 1039.13
2245.95585 385.003
2246.28739 201.075
2246.62203 103.22
2247.96094 21.9223
2248.30662 299.476
2248.63771 439.222
2248.96321 423.268
2248.98926 88.0957
2249.29249 1356.8
2249.62061 2679.35
2249.95356 3833.71
2250.28693 3669.4
2250.62086 3129.11
2250.95502 2226.27
2251.25269 14.4454
2251.28773 1470.24
2251.62219 1357.71
2251.95626 609.535
2252.29077 308.815
2252.42944 15.2382
2252.94931 44.5306
2254.61657 359.549
2254.95212 1090.78
2255.28651 1741.03
2255.61773 1617.74
2255.95095 1604.06
2256.28710 1447.55
2256.62219 1206.05
2256.95720 940.951
2257.29284 670.471
2257.62458 574.122
2257.95531 378.425
2258.28791 302.881
2258.62120 303.59
2258.95583 94.614
2259.93945 41.8667
2260.61322 149.397
2260.94877 289.261
2261.29395 20.9524
2261.63433 38.2213
2261.94998 115.88
2262.28662 329.596
2262.62268 502.87
2262.95749 606.804
2263.29159 641.254
2263.62733 530.354
2263.95704 177.535
2264.29027 337.091
2264.62096 86.8563
2264.96191 23.8424
2267.62883 37.6576
2267.95585 188.812
2268.28887 183.278
2268.61993 189.585
2268.96134 144.66
2269.28946 71.3213
2269.61757 61.1299
2270.27734 23.7918
2276.30615 22.8089
2276.60571 18.9899
2279.98877 35.7073
2280.32257 72.9285
2280.63634 42.0578
2280.98486 15.7123
2281.32418 106.11
2281.63184 19.4013
2282.30993 33.1982
2282.62888 163.071
2282.96282 82.6512
2283.29977 112.742
2283.61743 22.8496
2283.64697 19.4495
2283.95410 42.2929
2285.05396 14.4079
2285.32251 21.9467
2285.65435 93.3101
2285.98267 21.033
2286.31593 124.792
2286.64809 87.712
2286.97684 72.3427
2287.31787 23.6854
2287.64751 119.955
2287.97678 115.31
2288.30286 513.563
2288.63186 1358.16
2288.79883 23.5269
2288.96696 1737.57
2289.30135 1785.29
2289.63309 1406.08
2289.96739 807.867
2290.29893 416.789
2290.63379 215.677
2290.96265 47.5226
2292.99210 158.222
2293.32917 617.935
2293.65732 1455.43
2293.98545 1903.27
2294.30663 3791.29
2294.63711 6995.84
2294.97057 9519.93
2295.30351 8842.05
2295.63656 6666.27
2295.97005 4393.89
2296.30467 2630.18
2296.63587 1093.96
2296.96563 547.449
2297.30471 98.9247
2299.29327 268.906
2299.63742 2492.92
2299.96802 6071.53
2300.30197 8647.31
2300.63546 8959.65
2300.96878 7829.13
2301.30180 5320.01
2301.63548 3568.68
2301.80469 20.9181
2301.96995 2366.73
2302.30230 1256.65
2302.63412 619.03
2302.97029 280.172
2303.30323 144.175
2304.96371 442.282
2305.30288 1209.79
2305.63234 2052.34
2305.96582 2223.23
2306.30034 1872.31
2306.63260 1038.78
2306.97005 895.201
2307.30625 424.568
2307.63990 541.277
2307.97460 664.015
2308.30563 671.319
2308.64130 627.501
2308.97362 514.572
2309.30033 318.714
2309.63582 120.024
2309.97314 44.6298
2312.65234 21.2919
2312.97310 121.923
2313.30391 437.285
2313.63461 418.811
2313.96510 272.481
2314.30456 323.58
2314.63690 109.664
2314.97178 70.5234
2315.30151 45.2037
2318.16187 12.2561
2318.97339 21.2403
2319.82056 13.1282
2321.46240 12.5193
2328.40503 13.1748
2331.19019 12.377
2332.23413 13.5353
2332.64046 59.5982
2332.97214 205.044
2333.30801 278.431
2333.63891 283.535
2333.95166 24.4511
2333.98144 154.015
2334.31348 57.0999
2334.58496 13.3301
2334.64109 88.6874
2334.98413 21.5719
2338.32131 45.5036
2338.65285 1141.15
2338.98404 2811.94
2339.31601 4344.26
2339.64853 3906.9
2339.98158 3136.22
2340.31492 2057.91
2340.65024 1188.61
2340.98589 582.988
2341.31234 263.634
2341.65183 59.2273
2343.99184 181.108
2344.32547 1119.28
2344.65786 6324.06
2344.98688 15638.6
2345.31933 21664.3
2345.65201 22442.6
2345.98451 18046.4
2346.31776 12177
2346.65047 7242.77
2346.98335 3648.87
2347.31708 1662.04
2347.65172 406.013
2347.98475 129.532
2349.96689 27.9684
2349.99158 2111.33
2350.31914 6740.35
2350.65099 9745.39
2350.98313 10646.9
2351.31623 8381.7
2351.64895 5666.09
2351.98428 3720.22
2352.31573 1941.44
2352.65116 903.526
2352.98473 575.526
2353.30507 161.125
2357.98193 21.1202
2358.31876 391.168
2358.64904 507.451
2358.98279 669.661
2359.31641 481.397
2359.64843 201.036
2359.98242 18.8556
2361.99048 12.8296
2382.98291 20.6889
2383.30225 20.0597
2383.32950 96.1009
2383.66259 310.597
2383.99076 227.759
2384.32884 220.58
2384.65808 92.8611
2384.97339 36.1227
2385.00046 68.7762
2385.08105 13.3566
2385.33154 42.8008
2389.00712 903.984
2389.33299 2608.43
2389.66591 3313.49
2389.99714 3843.94
2390.32972 3230.14
2390.66223 2209.07
2390.99301 1408.76
2391.33219 777.231
2391.66165 317.081
2392.00150 119.244
2392.33887 30.8895
2393.48145 13.0424
2393.79224 22.1394
2394.80713 19.8926
2395.01231 5019.81
2395.33802 14648.4
2395.66850 23233.5
2396.00025 24088.8
2396.33259 20670.8
2396.66470 14417.2
2396.99774 9225
2397.32844 4460.29
2397.66103 1971.43
2397.99255 782.566
2398.33570 237.593
2429.98633 14.6873
2462.61499 12.456
2469.19434 13.5706
2471.91919 16.2499
2489.94580 12.9462
2491.71436 18.9624
2514.51001 20.4638
2528.37427 14.0769
2591.47949 13.7382
2592.47217 13.2135
2647.81519 59.578
2681.62646 13.1638
2703.36133 17.4537
2713.79248 21.4268
2721.82495 20.7688
2752.81274 37.7919
2756.47632 15.1665
2770.08105 13.5157
2771.84570 24.0927
2772.81226 23.2739
2779.84302 46.6914
2780.81982 21.3068
2789.34033 40.8338
2789.82764 17.1224
2799.85962 24.5005
2811.34058 22.9772
2825.84082 23.5898
2826.20679 13.3522
2839.82520 19.3008
2840.34292 85.2418
2840.84448 45.1241
2841.99731 13.4505
2847.84253 39.4902
2847.87988 18.4918
2848.83032 21.444
2849.82104 23.7588
2856.82593 42.4131
2863.88306 40.9093
2875.36281 84.115
2876.85181 18.9686
2883.35327 42.653
2886.85345 85.3551
2887.34646 113.378
2888.33277 68.1552
2895.34473 22.1622
2897.33691 23.7207
2905.33716 23.4508
2914.87842 35.9186
2915.36317 41.0911
2916.33130 19.6467
2916.36210 121.484
2916.87280 43.8157
2917.34717 18.415
2924.85938 25.0753
2925.34229 49.6288
2950.39014 22.2933
2950.92407 31.6307
2961.37773 62.7402
2961.87464 55.7548
2962.36109 93.7382
2962.87062 61.5804
2963.38501 43.5506
2963.83618 63.0532
2964.35042 87.8642
2971.83521 21.2072
2972.35059 125.55
2972.85645 52.6867
2973.36863 103.196
2973.88403 47.9153
2981.39307 37.4125
2982.35864 21.782
2990.35767 24.0516
2991.36686 141.536
2991.88287 64.2209
2992.38965 35.9637
2993.82715 14.3488
3007.79126 14.4493
3020.68701 13.2399
3036.33545 14.215
3038.87891 19.7791
3038.91626 30.5642
3039.32837 18.7904
3039.36224 129.039
3039.86805 163.558
3040.37476 39.8099
3047.35303 85.3072
3047.87744 51.9867
3048.38600 258.883
3048.89123 176.472
3049.39271 179.169
3049.87891 23.4028
3057.41553 13.685
3057.91943 18.8283
3063.69214 14.4805
3066.69922 14.1918
3085.06641 13.2314
3087.86401 37.7519
3104.83862 12.9545
3114.87280 39.906
3115.37695 53.221
3115.88383 176.027
3116.38159 47.3116
3123.40484 62.7404
3123.92010 144.997
3124.40486 172.789
3134.23633 14.0715
3175.09277 15.9102
3177.72583 13.2209
3188.69751 13.8523
3223.86548 13.6032
3234.75586 13.5457
3288.43506 42.5735
3327.04126 13.8729
3335.54346 13.9509
3335.87573 15.6555
3385.38647 13.6454
3443.54175 18.9473
3490.86450 14.3539
3494.31519 13.6917
3546.93872 16.3169
3617.64404 14.0177
3628.92651 13.7239
3662.17114 14.0779
3709.50342 14.2382
3718.22998 15.02
3754.72168 13.8679
3957.88281 14.4764
3972.33569 14.2966
4043.61377 14.807
4056.12598 14.1722
4083.68579 14.1579
4200.96729 14.4431
4275.14551 14.5586
4277.22363 14.3252
4299.54590 14.0592
4321.58447 14.5556
4394.58936 14.3801
4478.95557 15.3627
4548.01318 14.8294
4550.67090 15.1133
4551.20557 17.2507
4561.29736 14.9782
4594.40674 14.7268
4672.69629 14.5105
4676.67334 14.37
4726.53906 17.0773
4749.16260 15.2641
4775.09717 16.1685
4792.51904 15.3091
4816.04834 16.2525
4852.14258 28.266
4926.92725 15.382
4938.63086 23.3979
4942.28271 15.3036
4982.70020 15.332
5007.19141 15.48
5007.26074 15.6144
5010.95264 14.9019
5050.32861 15.2303
5127.73535 15.1078
5195.42334 15.1198
5220.83887 14.8695
5244.35645 14.9268
5275.22656 15.8632
5351.29199 27.4953
5407.65039 16.4102
5413.47217 25.3587
5533.05859 16.2267
5586.86377 15.6606
5629.92236 15.4258
5655.81006 15.7714
5659.86426 15.8118
5683.17285 15.1622
5737.69971 15.322
5745.25146 17.1224
5776.62744 25.4273
5893.32275 16.0297
END IONS

BEGIN IONS
TITLE=File: "C:\Users\chem-egg\Desktop\HCD Data\S_targeted NCE15_18.raw"; SpectrumID: "1577"; scans: "3,9,15,21,27,33,39,45,51,57,63,69,75,81,87,93,99,105,111,117,123,129,135,141,147,153,159,165,171,177,183,189,195,201,207,213,219,225,231,237,243,249,255,261,267,273,279,285,291,297,303,309,315,321,327,333,339,345,351,357,363,369,375,381,387,393,399,405,411,417,423,429,435,441,447,453,459,465,471,477,483,489,495,501,507,513,519,525,531,537,543,549,555,561,567,573,579,585,591"
PEPMASS=2457.33398 0.00000
CHARGE=2+
RTINSECONDS=300-480
SCANS=3-591
403.15924 8.7657
403.86420 9.51607
405.09207 8.38399
408.09109 8.96404
410.87405 8.41329
412.67816 8.35883
414.61108 9.28956
414.86771 9.27687
415.67154 8.78033
420.37643 8.42962
422.36609 8.6798
425.30954 9.46048
428.88574 8.82337
443.27975 8.9028
450.26144 9.4012
470.34711 10.1719
472.91052 9.73908
474.33643 9.65149
474.67880 9.40688
474.73700 8.61726
474.79926 9.68084
475.31073 13.182
475.35422 9.40937
475.40219 9.66304
475.45661 19.6205
475.47522 9.2725
475.49469 22.9759
475.53430 9.71134
475.54376 13.8413
475.55188 9.33168
475.57675 9.52396
477.01514 9.21716
479.62180 8.82846
486.20441 9.63024
492.15790 9.59277
492.17679 11.0444
492.18554 83.6715
492.19617 88.0155
492.20353 174.434
492.21107 164.761
492.21963 352.906
492.22707 291.752
492.23500 195.065
492.24167 257.471
492.24934 397.169
492.25851 211.023
492.26937 243.101
492.27838 103.221
492.28803 26.4201
492.29813 12.7063
494.16147 9.14083
496.69073 9.06702
504.29437 8.8786
517.44934 9.1764
519.47107 10.3119
522.62799 9.18031
529.79889 9.66447
532.71289 9.53183
537.09570 10.5473
540.18805 9.69295
543.30090 9.17098
545.10321 9.93022
545.30780 9.17718
555.95837 9.73503
561.48291 10.0032
562.75201 9.32126
581.91864 11.8181
582.46094 9.69982
596.36957 9.68078
601.97290 10.1689
608.50067 9.31093
609.42889 9.84005
621.16449 10.2644
638.56122 9.95004
641.76758 10.5086
650.97491 10.1887
659.14795 10.6279
661.80463 9.93902
665.41827 9.44295
670.06812 10.0901
673.79224 10.5092
673.88861 9.90148
674.05255 10.1618
675.32843 9.78675
678.10529 9.72498
678.23444 10.0875
678.72113 10.0512
694.07428 10.5552
701.60657 10.3834
707.08844 10.0236
709.82117 10.1013
712.02728 9.59244
713.66180 9.87605
720.46497 11.2246
720.47943 11.7974
720.48700 10.1762
720.52849 24.2793
720.56610 25.1842
720.62084 20.328
720.66486 23.3029
729.08392 10.7447
744.84094 10.04
759.56201 9.93061
764.65399 11.0514
768.59900 10.477
768.99249 10.0874
772.08508 9.91792
782.71844 11.5795
789.22327 10.1176
790.06622 10.6632
791.23145 10.3195
799.11139 11.1555
805.86200 10.4393
817.27960 12.039
829.52142 11.2531
831.90271 10.2572
838.16150 11.0511
855.25635 10.5351
870.07122 20.865
870.39661 10.6918
879.65100 11.4791
880.43719 11.1821
882.53076 10.9792
883.97693 10.5415
908.16559 10.8062
912.35968 11.6443
948.82397 11.1922
949.64624 11.4357
951.70496 11.1036
959.00330 11.9635
963.86664 11.5537
964.01367 11.3877
975.10168 10.3599
1003.75983 12.1487
1004.89355 11.2849
1005.17889 10.9277
1016.47162 10.9069
1027.74353 10.9722
1029.91174 13.2047
1034.58679 10.6546
1059.30713 11.4154
1075.60364 11.5133
1084.80261 11.3679
1088.70728 11.685
1089.55005 11.5076
1103.00769 11.3072
1106.15662 11.72
1114.88281 11.9625
1124.17249 11.959
1132.15430 11.0587
1139.97290 11.4431
1157.01489 11.8142
1166.60999 12.9197
1172.74036 10.974
1177.83472 11.9917
1190.78406 12.6581
1221.87488 11.2846
1257.03333 13.0071
1264.26404 11.7702
1301.76721 11.1738
1312.87598 12.5117
1353.87000 11.8076
1371.81165 11.8275
1399.18970 12.2158
1434.54712 11.3846
1456.10779 12.3704
1480.39490 11.8535
1498.08069 11.8643
1503.94055 13.4879
1514.11389 11.4485
1515.42773 11.62
1524.08875 11.3912
1525.84570 12.6003
1533.61829 14.297
1548.50256 12.0978
1556.58484 13.0511
1562.90906 11.941
1577.29919 12.1375
1583.92078 12.0728
1628.39465 12.3794
1634.66272 12.0476
1642.60510 11.9106
1671.47754 12.1538
1707.32104 12.7643
1746.92517 12.2956
1783.31848 12.4587
1816.34155 12.614
1835.43750 12.1888
1846.53259 11.8983
1874.51025 12.0426
1903.03174 12.2359
1906.23755 12.7938
1909.15381 11.9818
1920.19592 13.1901
1924.49121 12.8258
1929.81848 12.2201
2028.27905 13.102
2097.62793 12.3097
2113.49023 13.789
2119.57446 13.1134
2133.11157 12.7498
2140.79199 13.7092
2148.44434 13.9348
2163.45044 12.2589
2192.93628 13.1198
2192.98438 13.0088
2193.00928 12.9551
2193.11529 58.0374
2193.14183 42.405
2193.17615 28.8337
2193.21347 26.526
2193.26367 13.0108
2213.27051 13.5915
2216.97363 13.0921
2234.29590 14.5063
2243.96484 13.5462
2244.30396 13.3898
2248.24487 13.2605
2255.62280 16.5761
2257.59131 14.4327
2273.09424 14.2725
2294.97616 29.9051
2295.29984 47.135
2295.63672 33.2751
2296.28906 28.2353
2297.01050 16.5987
2300.29782 29.2961
2300.64005 30.9423
2300.95867 46.1384
2301.30524 55.2796
2301.62744 16.2283
2307.28491 30.4555
2309.04321 12.722
2321.60669 14.1813
2322.32935 27.6206
2322.92334 13.0287
2323.61304 13.4221
2324.28589 14.5047
2325.99292 13.7988
2328.04541 14.6103
2328.30615 13.9501
2330.30786 13.6328
2334.38257 16.0458
2339.64941 17.4338
2344.98532 35.2988
2345.04810 14.3127
2345.31526 216.241
2345.65502 273.634
2345.98020 117.024
2346.31896 91.631
2346.64453 33.9256
2347.63135 29.3807
2350.30103 14.2786
2350.64384 172.854
2350.96387 15.6417
2350.98926 33.0873
2351.31274 15.0006
2351.96167 27.2673
2352.30266 31.3292
2352.64160 29.0577
2352.97200 96.4787
2353.30640 17.2099
2353.63757 49.174
2353.96875 15.6134
2354.62738 45.3329
2357.96802 28.3004
2358.29922 60.8926
2358.63191 32.2405
2359.56396 12.8204
2359.63086 13.07
2359.95483 27.4887
2360.30908 13.9589
2363.95822 41.1569
2364.28540 27.0347
2365.96289 16.016
2367.62841 27.8847
2367.94571 31.1878
2368.31201 14.3413
2368.64063 28.4365
2368.98413 26.3694
2369.68066 15.2899
2370.00635 31.6654
2371.63257 14.9715
2372.29468 38.8144
2372.61914 15.4089
2372.95313 27.8127
2373.00589 32.989
2373.66309 36.1539
2373.99976 29.7781
2374.29077 13.809
2376.64429 16.3979
2378.65466 30.5542
2380.33984 12.8506
2390.31250 30.489
2390.51221 15.9304
2395.32317 116.676
2395.66521 240.634
2395.91479 13.0198
2396.00326 420.378
2396.33289 345.732
2396.66166 218.603
2396.99609 46.0757
2397.32563 45.9202
2397.65942 25.784
2397.68579 13.7556
2397.98389 14.7866
2402.98249 58.6487
2403.32084 100.628
2403.64824 99.1043
2403.98423 115.236
2404.31313 98.9583
2404.65103 62.0017
2405.30933 17.604
2409.96924 14.0279
2414.96777 16.3328
2415.30039 33.8561
2415.34375 13.6749
2415.96948 41.231
2416.30652 39.8826
2416.98413 28.163
2417.27930 13.982
2417.31059 70.8743
2417.64225 125.231
2417.98070 128.018
2418.31034 58.7581
2418.34644 14.459
2418.97119 15.8177
2419.00586 20.0487
2420.01748 96.8951
2420.04370 17.1817
2420.35962 40.3253
2421.64014 15.1369
2421.71533 14.7656
2421.94531 15.1681
2422.28540 33.9413
2422.96732 30.1216
2423.01440 14.2143
2423.35129 68.4506
2423.69019 32.5247
2424.02386 76.9731
2424.97290 13.5124
2426.31323 15.2023
2472.20483 14.6094
2490.84204 14.0019
2507.51978 13.1677
2524.29663 13.134
2588.80811 12.6159
2593.83887 13.6823
2663.65942 13.1604
2819.63232 13.8155
2839.85864 13.8871
2840.01147 13.3612
2876.20874 15.5953
2956.32690 14.7311
3037.81006 15.3494
3058.86206 14.4721
3061.16650 14.0173
3075.72192 13.8514
3101.34521 15.5016
3113.46338 13.7242
3119.25220 14.0595
3142.58740 15.0715
3238.95996 16.2238
3261.76416 14.1562
3275.85767 13.9466
3443.99146 13.88
3490.94165 15.0613
3499.40723 14.3342
3561.30835 16.2954
3572.69922 14.1531
3592.46826 13.8968
3675.61108 15.7781
3688.04443 14.8857
3707.70874 14.3767
3781.69873 13.5412
3882.12695 16.4092
3910.23779 14.7747
4103.46533 15.2356
4133.55762 15.5212
4197.66357 15.0989
4211.17090 16.3126
4262.34766 14.4987
4367.88916 15.2422
4410.60352 14.3728
4421.50391 16.1838
4460.49512 15.7726
4464.28516 14.0428
4561.46045 29.8729
4592.44678 15.8722
4649.03223 14.65
4671.02100 15.5683
4684.86670 15.6664
4774.90820 15.4245
4827.95508 15.3368
4904.85938 23.778
4909.06006 15.4756
5015.84961 15.1308
5065.69678 15.4688
5266.35059 15.1108
5371.85449 16.6249
5415.70020 15.9139
5425.49023 16.5501
5489.91992 16.2484
5606.66650 15.2004
5716.55078 16.3891
5735.22705 15.5949
5766.46924 16.2244
5782.72705 15.7225
5859.27979 15.2386
5859.40234 16.5446
5954.91504 15.6342
END IONS

BEGIN IONS
TITLE=File: "C:\Users\chem-egg\Desktop\HCD Data\S_targeted NCE15_18.raw"; SpectrumID: "1578"; scans: "4,10,16,22,28,34,40,46,52,58,64,70,76,82,88,94,100,106,112,118,124,130,136,142,148,154,160,166,172,178,184,190,196,202,208,214,220,226,232,238,244,250,256,262,268,274,280,286,292,298,304,310,316,322,328,334,340,346,352,358,364,370,376,382,388,394,400,406,412,418,424,430,436,442,448,454,460,466,472,478,484,490,496,502,508,514,520,526,532,538,544,550,556,562,568,574,580,586,592"
PEPMASS=1842.75549 0.00000
CHARGE=2+
RTINSECONDS=301-480
SCANS=4-592
400.40451 7.31291
401.44409 7.33439
402.50687 7.67202
404.88876 7.04533
405.22876 7.51198
408.54025 8.14494
410.11655 8.12917
410.38931 8.44169
410.90811 7.83512
413.77945 7.34429
415.39780 7.78337
417.60504 7.63531
422.50137 8.25007
423.10883 7.86292
424.56293 7.40602
425.70468 7.54424
428.70837 8.16695
428.88348 7.97939
429.46503 7.40211
430.34760 7.92795
431.08960 7.64886
435.13715 7.61863
435.59943 9.99703
439.05215 9.28914
442.16434 8.41662
444.65781 7.57571
446.74265 9.18369
448.68317 7.55556
450.60562 7.51897
454.71835 8.18721
459.36960 7.54651
459.80890 7.71926
470.03674 8.58288
471.97839 8.73176
472.13959 7.7428
473.73553 8.31785
474.43622 8.0551
474.55270 8.10764
474.66202 8.39078
474.70525 16.4436
480.16776 7.66512
486.93307 7.99548
487.25427 7.83806
492.15700 17.2491
492.17497 54.497
492.18569 75.9408
492.19419 90.2677
492.20349 220.62
492.21064 145.37
492.21814 203.824
492.22655 189.023
492.23496 221.162
492.24341 189.954
492.25058 321.091
492.25817 160.475
492.26432 156.553
492.27048 15.1605
492.27952 73.359
492.29095 27.9649
492.29767 10.5219
492.30777 7.5635
496.13101 7.68803
501.46326 7.5267
504.28607 7.63498
509.57104 8.32513
510.52359 8.34707
515.48749 8.31847
520.01416 7.91227
531.32367 7.94113
536.51929 8.6054
539.78217 8.64907
541.70728 8.10157
544.76575 8.0775
545.16998 8.15077
548.83563 8.59758
550.75549 8.02577
552.65619 7.80606
558.95728 8.28359
560.93878 8.01887
564.56641 8.76442
566.33209 8.24922
575.70062 8.96321
579.51233 8.54465
586.39191 8.63846
592.80872 9.81713
594.92035 8.35376
599.06274 8.13777
599.42358 8.0069
600.66565 8.26392
605.61182 8.41609
607.94452 8.70409
610.06028 40.2262
612.59503 9.03972
618.01477 8.10696
620.02698 8.52946
621.68677 8.92203
622.19806 8.69085
632.20587 8.5399
633.02966 8.3424
635.92371 8.39702
639.51471 9.12496
643.40881 8.6023
670.48779 8.77158
688.71893 8.85214
688.94763 8.79449
703.73059 9.47027
708.62256 8.66452
709.33917 9.03878
715.70630 9.05135
719.36084 9.49111
720.41547 8.63189
720.43610 9.08932
720.46421 24.0377
720.48279 10.5907
720.49072 12.525
720.50720 8.78992
720.52887 12.44
720.53674 9.0837
720.54738 42.0457
720.55933 10.9892
720.56669 74.6953
720.58403 46.1185
720.60052 10.0294
720.60986 8.58082
720.66327 11.4135
720.69171 9.46471
733.49268 8.89748
736.40692 9.71922
737.74664 8.96728
740.16534 8.80747
750.15155 8.56991
755.75647 8.82326
764.63556 9.43686
766.23871 9.10033
767.73969 8.93361
768.64447 8.49945
768.93127 8.9385
776.82336 8.90938
782.20892 8.90577
784.41223 9.81964
789.78943 8.68513
791.92407 9.25958
795.15015 9.01296
799.97449 9.61892
815.11597 8.63125
816.64362 9.25233
819.09119 8.87521
829.27368 9.33471
840.08514 9.63418
842.70715 9.00213
845.23401 9.08378
845.48547 9.41434
851.95715 9.18603
865.83008 8.94753
875.40503 9.08115
903.60498 9.08017
905.59613 9.40636
906.90814 9.09802
907.32990 9.48783
909.29706 9.05766
911.77899 9.40382
914.72156 9.83503
915.60803 9.96179
917.47589 8.88573
918.26215 9.54979
921.96228 9.38585
929.94678 9.39921
935.89453 9.24474
939.11597 13.0258
944.03430 9.46109
944.89905 9.29695
946.85736 9.41045
948.55927 10.6447
954.58502 9.16736
966.74304 9.31905
989.28717 9.84271
996.71857 9.66105
997.30103 9.30132
999.21802 9.32903
1027.55334 9.97871
1032.13098 9.61428
1032.20447 10.5423
1039.77686 12.0227
1047.46851 9.17633
1050.02673 9.00405
1053.14376 20.3483
1075.49683 9.58095
1076.65051 9.72655
1088.20691 9.29755
1089.67554 9.63515
1091.37769 9.94805
1101.81982 10.0465
1106.70581 9.39412
1119.88269 9.28576
1120.66809 9.42012
1127.49243 10.5664
1136.43958 9.73548
1140.13782 9.56048
1147.70593 9.42787
1169.49829 10.2354
1195.23267 10.6279
1206.87695 10.3239
1216.12488 9.99161
1231.63550 10.6457
1254.07751 9.92193
1262.18872 9.67589
1266.18896 9.56121
1299.92322 10.1826
1304.43640 10.5776
1305.64832 9.84266
1306.03064 10.5647
1336.65173 10.4244
1337.81152 10.721
1383.42737 10.9599
1398.33508 10.0588
1415.14124 9.66285
1415.90491 10.041
1441.84314 9.64785
1442.98792 10.3545
1449.91138 11.3862
1458.46631 10.3005
1465.66602 10.9228
1466.12646 11.5394
1472.20679 10.381
1475.93286 10.7545
1492.48450 10.4251
1503.09680 9.85009
1511.52991 9.98991
1542.69470 11.0613
1544.51660 10.6103
1572.25562 9.89833
1599.74670 12.4326
1627.44006 11.7465
1636.22192 11.5435
1645.13269 11.0349
1651.66589 11.5526
1655.20496 10.9931
1671.17798 11.7673
1671.29224 10.9698
1680.88025 10.6128
1682.21094 11.9884
1682.28638 52.377
1686.97095 11.5702
1687.46130 14.1302
1690.29163 10.2979
1691.72253 13.7385
1692.22705 11.9083
1693.45752 28.92
1701.72791 10.3388
1702.93823 12.1015
1706.62512 63.0535
1711.71667 13.1193
1712.88989 11.2477
1717.22562 25.8883
1720.23584 11.4668
1720.46228 13.877
1720.73291 27.5551
1720.97253 12.9059
1721.23488 47.5274
1724.22717 14.3023
1724.47546 10.9858
1724.72571 13.4488
1725.48547 11.9819
1725.98242 10.8643
1729.93787 14.8021
1730.03357 14.7026
1730.23637 44.8158
1730.71301 13.9823
1730.97473 15.4089
1731.47979 38.6269
1731.71692 11.1419
1731.97382 27.2202
1733.47314 11.1727
1734.21313 12.6396
1734.71826 12.811
1735.22424 31.2973
1735.46509 24.1563
1735.72363 11.6989
1736.22473 13.4759
1736.70935 11.9984
1736.97559 12.5567
1737.22046 13.9443
1737.71301 24.5268
1737.99890 18.2023
1738.23608 11.3478
1739.20667 32.6465
1739.24475 15.3542
1739.97809 30.0111
1740.45825 14.2227
1740.99023 11.1662
1741.21472 13.1266
1741.24219 13.4625
1741.99438 14.0529
1743.73901 13.8492
1744.23071 10.8391
1744.25281 30.6329
1745.74316 10.5226
1745.99573 28.5928
1746.24390 27.8582
1746.46497 14.5987
1746.49036 11.2147
1747.99988 12.7181
1748.20959 12.5189
1748.68921 10.8515
1750.16052 31.9208
1750.24146 10.6858
1750.26514 38.8343
1750.36707 11.9032
1750.98230 10.8774
1751.81873 11.0293
1752.13391 42.4054
1754.19006 10.3168
1754.24315 34.9095
1754.50562 27.921
1757.00183 11.4127
1758.23792 13.1374
1758.26086 11.2279
1758.49247 82.3395
1758.74189 43.9153
1758.99394 197.931
1759.24616 222.542
1759.49248 62.3765
1759.74179 37.3443
1760.24753 26.0805
1760.48547 25.9257
1761.21082 12.5886
1762.24563 44.1024
1762.49072 33.3815
1762.57532 11.967
1762.74004 138.951
1762.99311 131.731
1763.23898 108.289
1763.49925 29.7318
1763.56470 11.629
1763.73999 91.2936
1763.89551 28.971
1763.98579 48.3673
1764.00977 10.5226
1764.24021 25.1473
1764.48295 88.5767
1764.73516 95.3402
1764.98863 52.6561
1765.48962 11.7223
1766.99280 25.6
1767.24585 22.6737
1768.23639 87.4027
1768.26953 11.2826
1768.48247 47.3693
1768.73028 62.4218
1768.97954 43.2452
1769.25281 12.6725
1769.98999 13.597
1770.24255 13.1791
1770.73352 11.568
1771.20996 11.0915
1771.74512 11.0301
1772.25049 10.6189
1772.48549 41.1049
1772.72012 41.0443
1772.74207 11.4095
1772.97304 62.8108
1773.22714 100.832
1773.46765 25.7004
1773.48718 10.9139
1773.71887 12.8382
1773.91406 12.5039
1773.97192 28.9441
1773.98987 29.7978
1774.22083 11.8
1774.23964 120.619
1774.47391 38.9009
1774.57678 26.4419
1774.72119 30.3859
1774.73901 12.6353
1774.90796 100.806
1774.97774 62.3781
1775.23789 119.748
1775.47778 65.1408
1775.58191 11.9542
1775.72786 74.6863
1775.90479 11.3484
1775.97681 15.5665
1776.23446 37.363
1776.25256 12.5058
1776.47034 12.3582
1776.49151 42.593
1776.51697 13.0089
1776.76491 25.2555
1777.00330 25.8529
1777.25549 15.2329
1777.47498 12.543
1777.50699 67.6802
1777.71423 13.2484
1777.98532 76.9655
1778.22735 55.3521
1778.25181 44.3155
1778.46653 41.1197
1778.48677 121.271
1778.72423 39.7611
1778.97143 42.8985
1778.99988 36.0123
1779.22827 11.1611
1779.47769 36.6252
1779.50534 52.6138
1779.73194 45.2352
1779.76045 60.8477
1780.01208 39.7299
1780.23226 66.3457
1780.26147 13.4032
1780.50458 30.2215
1780.71960 10.7493
1780.76148 43.9206
1780.98401 28.7461
1781.25936 36.3854
1781.49451 11.3448
1781.76746 14.9802
1782.94604 14.8422
1782.98169 11.1831
1783.01257 12.7459
1783.25232 10.7673
1784.22217 11.3231
1785.23792 15.5263
1785.75211 112.907
1785.99438 15.1159
1786.25077 139.46
1786.52466 11.0392
1786.74831 89.6438
1787.25403 11.381
1788.22791 13.3707
1792.25499 23.4204
1792.50122 14.6718
1794.23840 11.3959
1796.25228 180.584
1796.50836 325.805
1796.75621 334.594
1797.00655 361.746
1797.25490 240.206
1797.32446 51.2285
1797.51111 157.266
1797.75319 89.0037
1797.99933 67.8534
1801.01599 10.769
1801.49268 11.0831
1801.75538 38.4689
1801.99903 187.667
1802.24674 211.44
1802.49323 201.486
1802.74466 103.379
1802.95874 10.8702
1802.99319 150.687
1803.24458 41.1182
1803.50000 14.0796
1803.87817 12.6232
1804.21680 10.5332
1804.25439 12.1171
1804.86536 11.277
1805.25330 26.0637
1806.51099 12.0365
1807.23289 22.3137
1807.49744 11.6132
1807.73792 15.655
1808.23730 13.7315
1809.83167 10.3505
1810.23511 11.6997
1810.25598 44.0959
1810.48083 26.7743
1810.73980 105.027
1810.76312 25.5836
1810.97144 11.5612
1810.99622 14.6847
1811.23157 156.996
1811.25488 12.3796
1811.48676 97.4204
1811.73164 26.0414
1811.99145 59.389
1812.21179 12.6297
1812.24335 24.5914
1812.49464 36.352
1812.74442 149.619
1812.98878 170.969
1813.24155 184.909
1813.48866 99.099
1813.75049 97.0022
1814.00574 73.1994
1814.25838 73.0565
1814.51739 111.805
1814.77029 114.166
1815.02155 169.869
1815.26650 83.8051
1815.52076 77.7445
1815.75252 106.52
1815.99604 41.112
1816.01782 12.14
1816.23379 124.504
1816.48495 113.258
1816.73946 52.5903
1816.98478 80.0378
1817.01494 76.1055
1817.03491 10.757
1817.24931 64.8893
1817.27350 59.7483
1817.49303 47.9862
1817.52240 125.828
1817.73828 15.2323
1817.77408 75.6672
1818.02143 63.99
1818.23747 24.3763
1818.73894 73.8891
1818.99766 37.2905
1819.25234 49.3165
1819.52026 27.087
1820.52368 11.07
1824.74231 10.7946
1829.37390 13.3344
1831.52222 12.2657
1839.25891 11.1584
1840.24798 41.4077
1840.57849 12.7543
1840.75281 10.5217
1840.98816 11.4256
1841.20105 11.7435
1841.24744 11.0838
1841.48279 11.5298
1841.59412 13.338
1841.95630 11.9531
1842.02148 13.284
1842.22864 10.7935
1842.26955 44.4501
1842.49341 10.2848
1843.01489 11.44
1843.51013 10.7104
1844.26786 50.1635
1844.77295 12.9332
1844.99341 11.4439
1846.05090 13.5506
1873.33948 10.6949
1878.57324 12.3356
1905.74817 12.8813
1905.79907 10.6602
1912.25403 12.2595
1916.92920 10.6929
1926.24548 10.869
1964.16125 11.4917
1976.53406 10.5954
2013.42896 12.2159
2028.26770 11.0166
2028.76709 10.5873
2068.36523 11.2847
2077.31030 11.9301
2108.27979 11.2466
2117.18384 10.8131
2180.39941 25.4334
2192.96311 37.3201
2193.06445 12.4784
2193.10211 61.9736
2193.13979 35.8678
2193.17674 25.1914
2193.20264 12.8709
2193.36255 11.7563
2216.62061 11.869
2226.65332 12.0136
2257.78003 11.1378
2451.67065 13.0329
2500.63135 11.6371
2502.75854 12.2072
2503.93481 11.9217
2556.90918 12.2003
2562.22974 13.1301
2569.24658 11.4506
2582.71045 11.7508
2588.81372 11.8378
2592.14771 11.8368
2592.35913 11.7319
2617.33374 11.3053
2641.66797 12.499
2702.03149 12.0165
2776.18262 11.8655
2793.71997 12.1614
2846.00610 12.8844
2875.80151 12.3856
2891.23584 13.2033
2900.81128 12.3084
2950.81055 12.5527
2971.30811 13.4493
2977.48413 12.1939
3009.28711 12.1559
3036.67725 12.1233
3040.14844 11.4496
3056.00464 12.9433
3111.25513 11.779
3115.40479 11.8423
3124.48438 12.303
3132.97778 13.2055
3147.93677 11.7478
3159.81250 12.7
3173.32910 13.5266
3213.60718 12.8775
3234.78662 15.1914
3353.65112 12.9017
3361.85156 12.2334
3364.11987 11.999
3372.40186 13.3604
3376.67358 12.2897
3386.24805 12.2677
3392.65991 11.8893
3404.24072 11.9396
3410.56030 14.0917
3727.26270 12.5461
3727.33301 12.5287
3729.15991 13.9715
3774.72510 12.1582
3776.69336 13.4378
3805.29980 13.6545
3853.13745 13.4121
3880.04858 12.5894
3909.29614 13.2308
4039.08960 14.3486
4108.86523 12.607
4148.55420 13.738
4164.90137 12.6143
4187.07764 13.0887
4198.24414 12.6671
4340.37842 13.1749
4359.91504 14.0551
4418.82520 13.4381
4426.84082 12.948
4557.39844 14.8881
4654.82471 13.7933
4667.48340 24.7058
4679.20443 27.879
4740.95166 13.0931
4750.86768 14.0007
4764.91211 13.5759
4828.17725 13.9091
4899.44775 13.6281
4913.56885 14.7975
5168.56445 14.11
5265.33398 13.649
5315.26514 12.6742
5408.25586 13.679
5415.74707 13.3783
5471.88672 14.3687
5504.77051 14.0284
5747.86084 14.6933
5805.22168 13.2143
5881.63086 19.7902
END IONS

BEGIN IONS
TITLE=File: "C:\Users\chem-egg\Desktop\HCD Data\S_targeted NCE15_18.raw"; SpectrumID: "1579"; scans: "5,11,17,23,29,35,41,47,53,59,65,71,77,83,89,95,101,107,113,119,125,131,137,143,149,155,161,167,173,179,185,191,197,203,209,215,221,227,233,239,245,251,257,263,269,275,281,287,293,299,305,311,317,323,329,335,341,347,353,359,365,371,377,383,389,395,401,407,413,419,425,431,437,443,449,455,461,467,473,479,485,491,497,503,509,515,521,527,533,539,545,551,557,563,569,575,581,587,593"
PEPMASS=2345.28784 0.00000
CHARGE=2+
RTINSECONDS=301-481
SCANS=5-593
400.69864 8.53923
403.30008 9.03039
406.03629 8.92637
411.46130 8.23957
412.42172 8.32114
415.14844 8.79683
417.29953 8.42013
421.65536 8.96461
428.06271 8.62873
431.99240 8.54195
437.99890 9.07333
439.71555 8.97421
441.52869 8.94157
447.28857 8.74912
448.04257 9.52784
448.15555 8.81743
452.28207 8.81953
456.67838 8.12536
459.81165 9.28067
461.22733 8.53136
467.78513 9.09391
470.88785 8.4496
472.04828 8.9021
474.49149 8.7851
475.28790 8.88277
475.31851 12.4055
475.32346 9.77366
475.33636 9.53305
475.35186 19.9405
475.38989 17.3079
475.40514 20.3547
475.41876 9.44714
475.45478 24.3847
476.77203 9.94604
477.07098 8.82179
485.78778 8.59022
491.95761 8.50024
492.16551 73.5071
492.17601 26.6678
492.18267 44.3438
492.19157 98.0119
492.20048 236.187
492.20591 23.3437
492.21181 111.504
492.21725 228.617
492.22815 289.806
492.23501 252.836
492.24660 362.205
492.25568 271.846
492.26506 157.955
492.27134 107.025
492.27768 10.7832
492.28350 112.789
492.29651 61.0067
492.30792 19.173
493.21307 9.69227
493.89374 8.55476
498.68839 8.99642
500.99466 9.45889
504.87619 9.21641
507.22629 9.33371
516.48846 8.40186
517.73267 8.8008
518.17261 8.93305
522.73163 9.86348
526.02148 9.84743
527.97949 8.90442
528.76398 8.70124
530.85303 9.67248
533.01465 9.37704
534.13013 9.96202
535.35852 9.46406
540.74646 8.65996
541.42523 10.1079
541.89478 9.33603
542.97113 9.33251
545.31354 9.21106
545.83734 9.01625
546.81787 9.28861
563.67383 8.87692
564.85254 9.03554
570.59924 10.1442
571.61200 9.94145
574.08820 9.19524
578.69708 9.29514
591.30365 9.35568
597.75983 10.0701
611.14789 9.36109
613.99249 8.90402
614.61920 9.38583
629.10443 9.7933
636.83209 9.54694
638.72565 10.5386
644.28955 9.91605
646.48944 9.84765
662.08838 10.3662
666.70972 9.51537
685.33881 9.56559
686.26794 9.65438
701.98096 9.3512
705.25134 9.37539
720.50592 21.2308
720.51786 21.6912
720.53827 11.303
720.54657 10.889
720.55603 11.4809
720.56793 11.0519
720.58546 19.7026
720.63845 21.754
721.84094 10.1418
727.43085 9.77643
731.28607 10.0227
732.88745 9.78707
734.50641 9.67961
737.29272 10.2849
737.91040 9.91429
739.02252 9.46908
758.20703 9.55951
768.53186 10.3372
777.86627 9.99652
780.64618 10.0574
787.87695 9.62263
792.60034 10.3518
802.06213 9.69701
807.89197 10.1651
813.80249 9.98949
815.82422 10.4598
823.77802 10.619
838.55255 11.2989
843.37408 10.2888
845.56982 10.7152
846.05371 10.9476
852.75439 10.8159
860.35962 11.3469
878.30902 10.9489
881.72083 10.1894
883.49567 10.7107
884.42914 11.387
900.10638 9.89956
911.29523 10.1905
916.37994 11.4719
917.00116 10.0028
921.43384 10.3827
929.98859 9.94688
934.26270 10.444
957.86920 10.466
958.44165 11.9159
960.42993 11.4507
961.32971 10.289
980.56433 10.3149
981.65436 10.0759
988.75513 10.5817
991.69391 10.5783
995.28772 12.6241
997.73120 10.017
1001.01825 10.638
1010.20721 10.6821
1015.40222 12.4518
1020.57477 11.1945
1039.13953 10.2259
1042.50818 11.6058
1066.53943 10.8799
1074.40002 11.2003
1078.58032 10.5561
1092.24060 10.645
1094.16846 11.3771
1099.63989 10.57
1099.73389 11.1547
1113.78650 11.5957
1117.22620 11.0205
1161.49390 10.9348
1187.64185 10.9707
1190.59570 10.8262
1232.31934 10.834
1237.33484 10.682
1247.89990 11.0565
1255.51135 10.8995
1272.50879 10.7063
1278.59167 11.8088
1317.63513 11.3762
1325.63574 11.3105
1339.19202 11.2016
1344.95203 11.0176
1391.87659 11.6494
1406.67432 11.1509
1407.77100 11.8823
1432.23511 11.9743
1436.95020 12.1348
1438.68579 12.182
1440.23206 11.228
1448.00720 11.5423
1451.84937 12.1827
1486.65857 11.9137
1496.83472 11.4206
1501.62695 11.8738
1555.99329 11.9012
1560.48694 11.9483
1566.04114 11.7077
1626.49768 12.1346
1635.94043 11.6764
1683.55591 12.2703
1685.26624 11.7975
1731.60986 11.4789
1733.91211 12.6383
1780.79016 11.6804
1782.11499 11.9694
1794.80566 12.7329
1797.87537 13.1343
1803.10974 12.3676
1830.03174 12.6411
1857.69824 12.264
1884.44116 11.6619
1889.16309 12.5982
1901.89197 11.9274
1921.68079 11.9748
1930.42383 12.9759
1935.45325 12.4981
1994.78149 12.2436
1997.10889 12.6429
2003.50586 12.6076
2015.97302 13.8825
2024.74207 13.1479
2050.75391 12.7816
2064.25342 13.9907
2071.54639 13.6155
2080.08716 12.2341
2085.11743 12.7231
2086.50146 12.0853
2101.60327 11.9953
2109.73877 12.0509
2118.13843 12.6136
2120.32739 16.9368
2151.48682 12.2927
2158.03052 14.155
2186.36768 14.1751
2193.00342 13.5588
2193.03174 13.5229
2193.05737 13.4
2193.10963 91.6241
2193.15348 39.782
2193.18620 80.0786
2193.23673 69.9772
2193.31152 13.6434
2206.25684 29.007
2224.59106 12.7856
2251.26001 16.0508
2256.94946 29.1584
2257.63086 16.1975
2257.95691 41.8663
2258.28369 32.4975
2258.59399 14.2613
2258.94702 12.9989
2262.95435 14.3566
2272.88623 12.9469
2281.90894 12.7328
2292.50732 12.6722
2295.92463 24.6726
2300.25000 12.747
2300.29907 15.308
2301.63843 12.562
2306.97624 74.5003
2307.63970 63.7458
2307.97319 85.2125
2308.30334 71.1859
2308.53418 14.3516
2314.30933 14.4671
2328.21216 13.4724
2330.95044 12.0655
2331.75977 12.5334
2344.94459 70.4833
2345.28047 76.413
2345.61715 46.5775
2345.94019 14.2727
2346.91504 13.8921
2347.38379 15.1736
2395.15942 13.3251
2488.81934 14.5013
2515.27612 14.3418
2576.89917 11.9527
2587.33960 14.543
2587.77759 13.566
2588.08740 13.1922
2588.67285 13.0973
2661.46118 12.4621
2666.89063 12.9383
2711.90479 13.1277
2736.22119 13.1619
2742.08691 13.9396
2746.50439 13.4747
2756.38867 13.6227
2799.20972 13.5113
2801.48584 13.5854
2854.46924 13.5652
2872.70508 13.7774
2874.19580 13.3878
2881.07715 13.2114
2884.11499 14.2023
2885.16382 13.0624
2885.35278 13.128
2886.43506 13.4536
2905.86670 15.2168
2909.19775 13.8121
2947.07373 13.0842
2961.18604 14.7784
2975.39014 14.5853
2977.45190 13.8514
3014.97998 14.0677
3073.80762 13.9048
3078.21729 14.759
3129.79199 13.8797
3137.89526 13.2506
3214.19312 14.981
3228.44409 13.3634
3252.78345 14.0119
3268.44751 13.6411
3270.61108 17.1237
3291.66138 15.7122
3301.76636 13.7002
3306.00220 15.7933
3310.69678 13.4037
3339.41479 13.8872
3340.13135 14.4263
3390.74780 13.8074
3423.09497 13.5887
3477.31860 13.7633
3513.69507 14.9141
3552.28687 15.1809
3568.44824 14.623
3608.89331 15.3975
3687.22607 14.4586
3721.54150 14.8318
3722.66577 15.9643
3738.04785 14.7403
3756.72217 13.9744
3779.67676 14.353
3852.38208 15.3113
3931.82275 15.1651
3986.22974 15.3334
4027.10718 14.3531
4076.92798 14.1945
4213.88574 15.1719
4293.15576 14.169
4298.97656 14.3281
4312.98730 14.2673
4404.72705 16.2898
4413.11963 14.4836
4483.85059 16.3311
4490.05225 15.8299
4511.24219 14.1776
4527.07666 14.3753
4571.85693 14.2059
4718.78125 14.9811
4777.13379 22.642
4911.21729 15.4724
5074.67627 15.5953
5158.25928 15.6933
5245.88721 14.5247
5275.65479 15.1629
5286.96045 14.7597
5312.01465 14.4327
5371.74512 14.6571
5415.88965 15.4118
5456.31152 15.1653
5582.65234 15.3682
5735.42383 25.7783
5735.50439 15.3051
5782.72949 16.3787
5885.09082 16.4177
5987.42773 15.8976
END IONS

BEGIN IONS
TITLE=File: "C:\Users\chem-egg\Desktop\HCD Data\S_targeted NCE15_18.raw"; SpectrumID: "1580"; scans: "6,12,18,24,30,36,42,48,54,60,66,72,78,84,90,96,102,108,114,120,126,132,138,144,150,156,162,168,174,180,186,192,198,204,210,216,222,228,234,240,246,252,258,264,270,276,282,288,294,300,306,312,318,324,330,336,342,348,354,360,366,372,378,384,390,396,402,408,414,420,426,432,438,444,450,456,462,468,474,480,486,492,498,504,510,516,522,528,534,540,546,552,558,564,570,576,582,588,594"
PEPMASS=1758.71838 0.00000
CHARGE=2+
RTINSECONDS=301-481
SCANS=6-594
400.60580 7.64076
401.22318 7.03329
402.01425 7.528
403.13217 7.67179
404.21851 7.22318
405.52997 7.25741
405.65839 7.42402
405.99240 7.18234
410.20560 7.25275
410.34256 7.4242
410.50192 7.51015
412.51651 7.15969
412.88852 7.34395
414.81641 7.3531
423.13046 7.35971
423.18372 7.40813
424.16470 8.06532
425.43439 7.57378
426.84781 7.80615
431.80545 7.25397
436.05847 7.62864
439.90863 7.47266
445.37079 7.39843
448.76605 8.33075
450.61911 7.41461
453.94009 8.02916
455.04077 7.60496
460.10260 7.37066
460.89542 7.64897
461.42029 8.1207
462.19452 7.25515
466.16003 7.5581
467.66876 7.47787
472.66922 7.81451
474.48715 8.71021
474.53018 7.50452
474.55176 7.57811
474.56503 8.70335
474.57156 7.56929
474.62656 11.1179
474.69705 8.59313
474.75912 8.40646
477.05264 7.96657
480.58771 7.57395
483.71991 8.99444
486.73273 7.71941
488.99503 7.54829
491.25473 8.01358
491.41751 8.03645
492.14294 8.57085
492.16160 20.4474
492.16806 15.9687
492.17654 13.5231
492.18895 83.5857
492.19670 110.339
492.20221 15.0847
492.21071 226.009
492.22158 397.886
492.23195 326.491
492.23929 198.34
492.24822 359.277
492.25542 122.045
492.26406 66.5071
492.27233 164.383
492.27954 33.1493
492.28861 63.2406
492.30573 17.2929
493.41583 7.53454
497.72556 7.8256
499.38840 9.00774
504.76587 8.82921
507.11804 8.27236
508.78058 7.95223
509.34698 8.1612
521.88617 7.86831
522.19751 8.01631
526.55817 7.77164
527.02716 7.95766
533.08057 8.1537
533.15045 8.131
534.83466 7.8471
536.21948 8.50582
536.23358 9.12014
544.52759 7.76463
551.01135 8.75848
556.04761 8.04244
563.09821 8.09441
564.56232 8.0928
564.64813 8.15173
566.67767 8.42463
572.87524 8.07754
580.34656 7.81365
581.51416 8.53966
588.77795 8.5321
593.25812 8.38073
610.06067 53.7453
614.44379 9.70593
615.52368 8.29633
618.58087 8.78808
622.64301 8.8403
622.81793 8.32926
627.49255 8.12129
635.84399 8.48397
642.05145 8.52193
649.18292 8.34716
657.32983 8.07611
658.55817 9.08342
661.90289 8.2951
663.12360 8.00672
667.69513 8.50389
670.65265 8.57477
672.21887 8.59343
674.02582 8.50886
675.86011 9.0734
680.37878 8.37829
681.04053 7.92938
697.86780 11.1754
699.88971 8.84504
712.64709 8.92789
717.92755 8.5937
718.11353 8.64193
720.47052 11.3109
720.48217 26.6174
720.50302 39.6326
720.51337 19.0822
720.52509 8.39906
720.53372 20.9374
720.54667 36.9668
720.55499 9.12233
720.57617 8.56609
720.59399 9.16143
720.60205 8.7044
720.61584 9.90635
724.93896 8.38128
728.21039 8.51745
728.79370 8.44399
751.54578 8.11899
768.05023 8.75207
768.53717 8.77918
783.24152 8.36038
792.12604 8.88609
795.90881 9.43367
805.50146 8.38007
806.49841 8.92035
822.55621 9.46073
823.23840 8.77968
830.39221 9.44383
839.42413 9.52911
853.08392 8.90663
870.20477 8.84074
877.30316 8.89972
878.26379 9.04259
882.53674 8.99879
889.50824 10.0182
895.24628 9.91774
902.88379 8.74282
906.38837 10.5524
918.25464 9.0269
926.05676 8.9608
927.66956 8.85218
930.01447 8.8186
930.44788 8.85446
936.95782 8.91424
939.11582 39.1867
945.83563 9.41089
961.31146 9.0795
973.03412 9.0828
977.92908 9.33258
996.14661 9.57037
998.90594 8.74618
1000.80219 9.06594
1001.21777 9.0343
1024.65881 8.95017
1029.72681 9.56493
1034.53821 10.8616
1034.96826 9.52694
1036.60742 10.8371
1038.40356 9.0355
1038.47852 8.88082
1047.88171 10.1892
1083.05688 9.97791
1094.33423 11.0521
1125.56128 9.60706
1155.80322 9.36367
1171.43726 9.66871
1183.51282 10.5485
1185.81018 9.35775
1186.17810 10.3144
1200.75964 9.85495
1250.50159 10.0172
1255.55090 10.5863
1262.27454 9.98306
1263.96350 9.5227
1275.54663 9.47615
1306.72864 9.79354
1314.13696 9.57125
1321.31238 10.3023
1344.82935 9.74234
1351.89551 10.0623
1353.80823 10.7927
1372.51050 9.87808
1405.72437 10.1883
1428.24158 9.74431
1436.16125 12.0668
1440.74890 10.9355
1460.25354 9.96793
1469.38098 9.47584
1478.95618 9.91632
1487.18250 10.2045
1504.55371 10.4635
1507.43652 10.0325
1508.18323 9.96355
1521.60352 10.284
1539.19897 9.86962
1545.47400 11.5981
1545.53601 10.1877
1553.29199 10.5046
1553.81079 9.8397
1563.43945 27.5081
1569.39539 10.2615
1569.94446 9.91799
1571.90735 10.9101
1580.67896 10.4935
1603.55420 13.6565
1603.87891 10.7932
1606.01404 14.6683
1613.21045 12.0614
1621.44348 10.2521
1625.19446 12.7153
1631.21375 10.3055
1634.88831 30.5567
1642.41345 10.4275
1653.90254 23.5159
1654.22707 21.892
1654.54089 38.891
1654.88450 50.0626
1655.21154 33.4235
1655.45410 12.5415
1655.54584 85.0782
1655.87737 56.7158
1656.87708 10.6593
1657.63501 10.1511
1660.20791 57.3827
1660.54373 94.14
1660.87387 61.3961
1661.21216 11.7033
1661.54419 25.8179
1662.53052 10.418
1662.70190 12.0126
1665.52893 10.8997
1665.87898 37.153
1666.21826 10.3551
1668.87988 13.2803
1669.51526 11.4102
1672.90552 11.183
1682.51990 11.2066
1682.96143 30.953
1688.96875 10.4794
1692.22302 25.4192
1692.72131 27.1149
1692.97387 73.0602
1693.22424 25.6912
1693.48511 13.1148
1693.96802 28.2705
1695.65759 9.92692
1696.46691 22.5186
1696.72180 10.7987
1696.73975 13.7767
1696.96667 30.4551
1697.22290 13.5809
1697.46875 13.5856
1697.97229 38.9493
1698.23877 11.0882
1698.48267 12.7409
1699.22033 28.4725
1699.56323 27.1228
1699.68274 11.5318
1699.89125 25.5447
1700.97888 11.7573
1703.18665 10.6697
1704.23450 11.4862
1704.55564 56.5216
1704.89448 246.214
1705.22739 742.014
1705.56088 731.787
1705.67236 10.41
1705.89493 586.133
1706.22698 529.085
1706.55831 375.823
1706.88992 300.878
1707.22161 92.9692
1707.55856 62.5849
1708.22095 14.5475
1709.28076 11.2174
1710.22434 156.873
1710.55821 371.506
1710.89137 430.365
1711.22784 379.446
1711.55796 255.419
1711.88873 236.406
1712.22407 81.1144
1712.55452 75.0639
1712.89060 25.7125
1713.22205 26.7624
1715.89856 10.7316
1719.22839 24.9416
1720.21692 11.3251
1720.44788 10.9288
1720.55420 13.2072
1720.88647 10.8713
1721.96021 11.7767
1722.70166 12.364
1723.58008 15.6446
1724.45215 10.6955
1724.59338 10.7792
1724.92981 12.5714
1726.48755 11.2777
1727.27063 12.5363
1729.98523 13.3985
1730.23719 91.6082
1730.48780 89.9899
1730.73877 21.4297
1730.98666 50.8476
1731.23582 61.8514
1731.47925 11.3075
1731.73511 27.8186
1735.98279 27.3358
1736.21838 12.6541
1736.48889 11.4836
1749.23068 26.3567
1749.57468 81.0073
1749.59314 12.6247
1749.90561 189.521
1750.24001 246.808
1750.57520 108.396
1750.90539 102.716
1751.00049 10.8396
1751.23910 73.6069
1751.56820 53.8103
1751.90405 12.9174
1754.91244 93.151
1755.24446 639.875
1755.34180 25.468
1755.57587 1749.2
1755.90948 2177.23
1756.24414 2420.24
1756.57669 1852.18
1756.90884 1125.37
1757.12451 10.6982
1757.23933 802.16
1757.25867 11.4684
1757.57099 457.179
1757.90512 405.437
1758.21618 57.8354
1758.23723 219.544
1758.46481 66.3718
1758.57654 27.2243
1758.72471 81.3171
1758.91003 12.1437
1758.96701 85.6734
1759.22095 12.7893
1759.24060 22.6713
1759.47221 37.2621
1759.71277 12.1194
1759.89880 27.8164
1760.23768 96.105
1760.30713 11.0925
1760.57655 159.719
1760.90289 92.116
1761.24331 35.0887
1761.57532 13.6893
1834.97522 11.9405
1926.10876 10.8045
1926.57825 11.5359
1934.89514 11.2674
1972.26672 12.9888
1982.39941 11.1381
1982.76782 12.9243
1990.30872 10.8026
2035.20349 10.3721
2059.71191 11.9753
2079.90796 11.3779
2087.77710 10.8929
2096.59717 11.6603
2109.95728 11.1232
2136.58496 12.064
2155.72412 11.4263
2164.31152 19.1347
2192.91650 10.3021
2192.99854 13.7653
2193.11769 56.1264
2193.17753 62.4208
2193.21094 11.1342
2193.26831 27.3923
2220.56787 11.881
2288.76416 11.6266
2310.09155 11.1462
2317.80151 10.9793
2324.96924 11.46
2328.10742 10.5951
2332.32471 11.3867
2343.00220 11.0521
2354.54468 12.4013
2359.43652 10.7368
2374.34326 11.3508
2379.37256 10.8425
2426.09351 11.3085
2544.42163 11.0684
2553.94482 12.0655
2643.96899 11.3745
2687.64453 11.1836
2707.42822 13.2156
2715.10889 11.7441
2743.74512 11.2764
2755.53369 11.9873
2835.16235 11.778
2861.31104 11.3496
2883.46753 11.2383
2894.00098 11.7684
2895.93164 11.3764
2924.26099 11.9616
2942.87378 11.4247
2953.19019 11.9539
2966.41357 11.6788
2967.17871 12.0764
2980.40576 12.8025
3004.15845 12.5455
3023.07031 11.6457
3124.16431 11.6281
3235.28101 11.9806
3239.09668 11.7527
3279.73511 12.7514
3385.15308 11.9171
3397.44360 11.5351
3427.93042 13.743
3439.41821 11.9117
3457.28174 11.6427
3486.11816 13.1763
3532.88452 11.5982
3645.47339 12.2976
3744.14307 12.8418
3829.64697 13.5031
3890.30078 17.0425
3935.87988 12.8265
3982.87183 12.2872
3991.96777 14.1935
4003.88281 12.4748
4054.10693 12.7673
4213.02930 12.5868
4217.81982 12.8358
4255.03467 13.2815
4283.43555 12.209
4312.01953 13.5874
4393.06348 12.7424
4399.78906 12.8133
4463.91113 21.228
4507.66992 13.091
4532.79785 13.2447
4584.86914 13.4873
4609.14502 12.7673
4671.19971 13.3389
4672.24268 13.4185
4709.05225 13.6128
4724.86865 14.1927
4895.72119 12.8309
5259.96484 13.2513
5307.45850 12.9889
5312.39355 12.7189
5359.40869 12.4334
5392.62988 12.6439
5416.11230 13.114
5492.69336 13.6034
5570.28174 13.799
5607.66260 13.8313
5680.47021 13.5301
5731.85303 13.6529
5774.25098 13.5117
5832.14111 13.4666
END IONS

BEGIN IONS
TITLE=File: "C:\Users\chem-egg\Desktop\HCD Data\S_targeted NCE15_18.raw"; SpectrumID: "1581"; scans: "595,601,607,613,619,625,631,637,643,649,655,661,667,673,679,685,691,697,703,709,715,721,727,733,739,745,751,757,763,769,775,781,787"
PEPMASS=1796.75769 0.00000
CHARGE=2+
RTINSECONDS=481-540
SCANS=595-787
402.40466 22.4758
403.71527 23.0627
411.88770 23.5949
414.27710 24.2947
415.70325 23.9934
423.68802 24.9056
423.80426 22.5959
426.69034 23.2744
437.44006 22.2102
484.63644 23.2956
490.77664 24.3616
492.19174 40.9079
492.21162 134.8
492.22165 186.566
492.22874 386.971
492.24097 354.829
492.25046 279.246
492.25780 256.484
492.26422 223.382
492.27275 259.411
492.28210 25.4301
492.28929 159.38
492.30045 34.7285
499.83707 23.2256
528.16644 26.2388
535.01166 23.4942
540.81323 28.9014
551.18927 23.7224
577.92786 25.6868
593.89221 25.6952
609.15912 24.4707
622.95520 27.0198
658.71088 24.4194
707.58258 26.9457
711.23523 26.3847
711.57550 24.8546
720.41779 28.0253
720.43225 28.4427
720.48206 30.5305
720.49261 31.2878
720.50367 57.6201
720.51093 31.6915
720.53473 25.7672
734.62994 29.7391
765.73022 26.1705
782.67767 25.8549
816.89813 28.5664
851.50629 26.256
878.01172 29.1407
879.36005 26.6953
922.33160 27.0465
1032.77454 28.8202
1128.63550 30.8906
1163.88391 30.7017
1191.51880 27.8611
1205.00647 29.7396
1238.19958 31.6436
1239.59290 31.96
1278.88477 33.1937
1295.97388 29.5868
1296.49670 30.3007
1324.58826 28.789
1381.43213 29.2689
1485.66357 30.5065
1502.99683 30.3173
1614.48804 33.9141
1632.45850 36.4001
1671.85083 31.3815
1699.15393 31.0675
1720.97314 35.429
1721.47534 32.2472
1725.22839 33.8411
1728.24060 30.5064
1733.48633 31.2923
1757.45459 33.9224
1758.99219 33.8366
1759.24646 35.1965
1762.74756 42.583
1762.98633 42.5178
1763.24854 75.6571
1770.43945 35.1753
1779.62891 30.7518
1784.47839 34.3872
1795.25732 31.3834
1796.25592 191.551
1796.50610 150.631
1796.75696 41.8736
1797.00727 182.953
1797.25659 39.7442
1807.59924 35.7902
1863.74719 33.0592
1869.04602 30.7868
2166.21533 32.7797
2192.93286 34.9946
2193.01449 106.372
2193.09646 112.619
2193.30371 37.1471
2217.49072 33.3718
2234.62354 32.0523
2588.55933 38.7663
2589.88940 33.8057
2641.96729 34.0913
2676.84033 41.9312
2807.88794 34.0445
2870.46338 34.4017
3071.40063 35.6749
3237.76147 35.9294
3254.07178 41.7179
3268.79004 36.7602
3270.58862 34.4342
3300.64063 41.2303
3339.63672 43.583
3374.57056 40.064
3617.24072 36.8307
3649.06543 35.6384
3690.88232 35.9936
3744.92334 40.4495
3750.98193 37.3345
3781.39844 38.0128
3934.41235 36.7245
4211.90771 39.1261
4224.70557 38.2975
4240.62695 38.5971
4317.00391 38.9209
4368.79443 51.7033
4401.46045 37.4181
4582.09180 38.8134
5035.19238 39.2655
5040.47168 42.865
5252.46631 39.0638
5310.53711 39.0199
5331.22754 37.1177
5422.45166 54.4718
5518.52686 42.3064
5576.04004 39.3571
5628.81055 39.8171
END IONS

BEGIN IONS
TITLE=File: "C:\Users\chem-egg\Desktop\HCD Data\S_targeted NCE15_18.raw"; SpectrumID: "1582"; scans: "596,602,608,614,620,626,632,638,644,650,656,662,668,674,680,686,692,698,704,710,716,722,728,734,740,746,752,758,764,770,776,782"
PEPMASS=2396.00269 0.00000
CHARGE=2+
RTINSECONDS=482-539
SCANS=596-782
400.41861 27.1772
414.39224 26.9288
418.79501 25.9345
442.00409 28.2993
455.78726 30.4013
456.81989 27.8368
492.18201 66.5846
492.19724 39.4572
492.20553 141.16
492.21156 217.493
492.22549 361.237
492.23294 131.34
492.24309 344.188
492.24988 149.693
492.25826 334.844
492.26490 189.877
492.27599 341.17
492.28366 33.4476
492.28959 188.614
492.30595 91.8732
501.97824 30.1818
509.13336 33.2517
515.14227 27.6524
527.97211 30.3527
552.07410 33.72
552.60834 28.9765
560.35590 27.0592
570.21045 28.5486
601.51215 31.8353
636.55859 30.6366
639.80682 29.5384
640.10535 29.9943
659.07642 30.3362
672.36847 28.9496
684.05347 31.1523
690.94525 30.8244
717.15051 31.8669
720.40027 31.0308
720.40906 31.9625
720.47828 124.683
720.49310 31.3417
720.51136 73.9632
720.52705 101.392
724.65216 32.6543
743.95374 29.8826
749.97363 30.4785
763.60974 31.2626
768.23492 29.3789
776.08130 30.0989
783.59119 30.9011
799.77911 33.1347
810.39606 30.3812
844.70508 32.9456
853.30652 32.9542
865.76874 33.2931
921.97968 32.654
930.86139 34.5845
962.86426 33.9923
965.81995 33.2713
1023.46368 32.9796
1027.76221 35.905
1032.26038 35.0901
1068.94946 32.8699
1128.47595 33.2614
1154.22974 34.5626
1181.02136 36.4663
1264.44067 34.3781
1272.82837 34.6739
1276.40710 38.1203
1362.85266 36.1556
1416.85449 37.9465
1446.47754 39.4159
1458.52039 38.347
1505.14160 35.596
1547.80115 35.2846
1563.51123 35.2464
1593.56799 36.7705
1654.48523 37.3506
1783.60742 38.5352
1836.06970 37.9061
1865.74084 37.7593
1896.90759 38.7622
1919.70679 43.5112
1946.35461 42.7354
2037.18835 44.205
2063.83691 40.0419
2085.14404 39.362
2191.85303 39.2157
2193.20459 78.7778
2193.23145 40.9306
2236.69189 39.4339
2344.99756 82.164
2345.31909 48.4707
2345.98560 53.2452
2642.83105 41.9888
2652.60327 39.3988
2665.42163 40.6673
2683.66577 46.322
2915.43652 41.4687
2917.74097 43.1304
2978.17261 45.1413
3001.83521 44.2379
3041.76807 42.0016
3046.49780 41.5299
3067.38403 44.5248
3173.20801 42.3559
3212.40356 45.3044
3424.94922 44.126
3634.11914 44.6591
3647.48633 44.0899
3669.91382 42.9782
3720.30444 46.8398
3921.91040 43.879
3935.74951 46.047
4213.88721 44.5861
4222.21533 86.7243
4361.56836 48.3768
4612.18262 47.1412
4749.13525 48.9098
4776.73486 43.7548
4814.33301 50.1417
4842.80273 47.8844
4946.22412 47.8593
4986.83057 73.9923
5118.28857 47.7701
5142.85693 46.3083
5176.49561 47.8965
5196.66162 47.2984
5492.28467 47.294
5551.22656 85.4049
5607.66064 47.2251
END IONS

BEGIN IONS
TITLE=File: "C:\Users\chem-egg\Desktop\HCD Data\S_targeted NCE15_18.raw"; SpectrumID: "1583"; scans: "597,603,609,615,621,627,633,639,645,651,657,663,669,675,681,687,693,699,705,711,717,723,729,735,741,747,753,759,765,771,777,783"
PEPMASS=2457.33398 0.00000
CHARGE=2+
RTINSECONDS=482-539
SCANS=597-783
410.35095 25.9667
412.31915 25.5183
444.79855 27.7307
447.37488 29.2041
462.28848 29.9476
470.92413 31.4569
474.75885 31.1095
475.55701 27.4462
475.59146 36.4144
475.74158 31.6134
475.81134 34.7746
492.20349 75.191
492.21140 244.124
492.22042 146.316
492.23009 201.695
492.23857 262.753
492.24800 454.51
492.25910 441.154
492.26817 88.9455
492.27573 315.595
492.28663 228.411
506.80878 29.9353
507.65662 28.3537
557.00616 32.0774
558.97589 29.1292
596.86066 28.791
615.60278 31.0661
630.34418 30.14
647.52570 34.5554
665.03802 30.6116
686.43365 30.7909
720.42236 32.2016
720.43308 72.2378
720.46747 35.0422
720.50818 30.9891
720.53229 32.2418
720.54572 43.6687
720.56244 40.5592
757.36920 33.8022
758.39819 31.4812
770.60486 31.1016
779.22565 32.746
796.68182 31.3143
810.27435 31.6324
813.15802 33.3361
844.40454 37.8197
914.22729 32.2958
914.90131 32.1543
916.22479 31.4815
935.38574 34.788
937.85522 32.4887
1026.20349 33.886
1036.08447 36.8908
1046.83472 33.9206
1051.73767 33.834
1064.88721 34.0574
1120.89417 35.7085
1126.53174 34.9759
1140.51135 33.4759
1146.60437 41.1956
1161.37781 34.003
1182.89026 34.4612
1223.26746 34.1145
1234.07214 36.9453
1249.20654 34.3268
1273.80518 34.5111
1302.29077 38.8603
1310.47363 36.0467
1367.18323 35.7349
1470.50159 37.2844
1494.04749 39.0777
1506.11670 38.7654
1525.26526 36.7617
1535.97351 38.0882
1568.72852 39.6196
1601.32397 47.1304
1810.89258 41.1914
1836.53418 38.8832
1927.51172 38.1696
2033.70776 41.8478
2061.01196 38.7438
2192.98511 54.4134
2193.01658 85.4235
2193.04248 41.0978
2193.12915 47.9311
2193.30957 44.0849
2272.97852 42.5196
2302.71655 41.7073
2389.39990 41.7948
2540.94214 40.6378
2885.46606 44.2981
3046.05103 40.8931
3098.86279 43.8502
3101.58911 43.327
3234.17139 42.0147
3500.97534 43.4179
3505.88159 43.4914
3514.82129 44.7517
3650.59644 45.6384
3759.97021 43.3866
3781.99438 48.0077
3863.78345 43.5434
3956.95190 44.3136
4062.44751 49.7776
4081.41138 46.6298
4263.94238 45.0085
4279.95947 44.8884
4421.59521 45.9742
4477.26758 46.5763
4508.96387 50.0195
4635.42480 47.7585
4726.07422 60.055
4728.91260 45.1236
4765.45557 45.1221
5090.44727 66.8381
5231.51563 87.7211
5385.97607 46.7103
5477.04639 51.3764
5563.67383 46.9844
5943.52148 53.9783
END IONS

BEGIN IONS
TITLE=File: "C:\Users\chem-egg\Desktop\HCD Data\S_targeted NCE15_18.raw"; SpectrumID: "1584"; scans: "598,604,610,616,622,628,634,640,646,652,658,664,670,676,682,688,694,700,706,712,718,724,730,736,742,748,754,760,766,772,778,784"
PEPMASS=1842.75549 0.00000
CHARGE=2+
RTINSECONDS=482-539
SCANS=598-784
401.37509 21.9242
408.98859 23.151
426.95172 24.0582
459.72162 24.4566
466.33072 23.0916
468.64545 24.7219
470.06110 24.0474
484.53641 24.0102
492.19612 68.2147
492.20270 86.0874
492.21301 193.615
492.22213 211.554
492.22911 348.76
492.24114 233.602
492.24924 72.4417
492.25602 181.331
492.26296 221.278
492.27164 399.993
492.28377 64.6386
492.29136 94.6577
492.30937 65.5188
500.34290 26.3326
508.84763 27.3778
556.12988 27.0282
641.51508 26.2657
652.31824 25.4293
659.50659 26.091
692.67047 25.9032
697.50116 26.4657
701.39783 27.7796
720.39124 27.8768
720.41217 27.5494
720.43713 36.4711
720.45963 60.6429
720.47195 68.4713
720.49176 43.575
720.49969 30.3134
720.50793 26.3164
720.54081 55.9223
720.57507 27.216
753.95502 25.9022
770.25653 26.817
787.84833 26.4459
810.31842 29.7412
818.03937 29.9405
879.60626 30.3344
879.75543 27.3283
881.89178 29.4293
907.12073 29.3809
956.23627 29.9958
956.70154 28.7795
978.49432 28.1078
980.65930 31.2647
1101.74463 29.0388
1126.99219 29.3555
1151.80847 32.3003
1160.87134 34.5459
1207.19568 29.3477
1232.78406 33.7875
1296.95544 33.2177
1308.01550 34.6261
1308.09729 30.901
1344.78259 30.4656
1345.79846 29.8887
1378.00537 31.4348
1387.38257 32.3191
1486.87439 31.8867
1513.76392 33.0604
1623.66577 37.629
1769.12439 32.4247
1810.57935 32.5544
1844.51453 35.971
1940.00928 34.3045
2039.23547 33.561
2133.55566 36.0128
2180.56763 33.9942
2192.95166 33.9885
2193.01929 34.3787
2193.05396 33.6417
2193.09467 76.1292
2193.12109 39.1214
2193.29712 34.2878
2221.03027 36.4573
2258.22437 34.4055
2386.28003 42.4266
2389.13867 34.5158
2415.33105 41.2987
2431.98730 36.7051
2471.33569 35.617
2506.72290 38.2043
2566.87378 40.9042
2570.85229 37.8939
2711.40649 36.8953
2819.30469 35.4735
2923.66553 39.7204
2933.62891 36.0425
2938.85840 39.7911
3069.09839 36.8489
3082.73218 36.6378
3086.49512 43.3287
3105.73218 36.7813
3126.53979 39.1117
3376.28589 38.0535
3571.27979 39.0946
3595.54028 40.1927
3688.81665 38.9417
3815.80908 40.5392
3864.83252 42.7847
3970.91797 39.504
4289.81934 41.0533
4321.27783 40.9905
4343.93848 40.5428
4351.33008 40.1442
4394.88184 39.4142
4400.27490 39.2418
4550.62646 44.6502
4670.22998 41.6507
4692.32471 40.4015
4802.03760 40.6128
4935.28564 40.3244
5344.50537 42.8788
5362.19287 42.0064
5485.29590 44.5518
5666.14551 41.49
5756.74023 40.3298
END IONS

BEGIN IONS
TITLE=File: "C:\Users\chem-egg\Desktop\HCD Data\S_targeted NCE15_18.raw"; SpectrumID: "1585"; scans: "599,605,611,617,623,629,635,641,647,653,659,665,671,677,683,689,695,701,707,713,719,725,731,737,743,749,755,761,767,773,779,785"
PEPMASS=2345.28784 0.00000
CHARGE=2+
RTINSECONDS=483-539
SCANS=599-785
409.09991 26.6503
413.30496 26.0181
425.09470 27.6937
429.91901 26.2273
448.95044 26.4283
454.56339 30.3381
466.24136 26.8653
473.44287 27.2363
475.34686 33.3493
475.36179 29.0661
475.61230 29.0133
475.64532 36.4499
492.21226 170.003
492.22338 226.761
492.23557 540.505
492.24578 356.323
492.25619 572.172
492.26178 29.5706
492.26698 295.996
492.27695 86.1361
492.28530 110.679
492.29049 217.172
492.30139 30.4259
511.48950 28.2243
533.73059 35.7127
534.47809 29.3936
545.05115 27.708
564.50415 32.3375
566.93384 30.4108
572.82104 33.103
582.51556 28.5117
601.31781 31.5651
619.80646 28.1047
623.93134 29.2121
672.08508 29.3769
720.46600 31.613
720.48706 31.2762
720.51111 30.2013
741.33185 29.2656
744.23309 31.2336
761.49573 30.2655
776.56451 31.3178
789.64331 30.2929
806.06671 32.681
819.02850 31.1908
828.78192 30.2974
837.21930 31.8676
843.79755 36.6695
849.54584 31.5524
853.28137 33.4507
876.34692 32.5815
897.25189 33.391
904.51019 35.0642
965.82324 37.2918
985.17896 32.5759
1009.75775 32.9744
1029.53735 32.7798
1039.74683 34.5972
1042.85400 33.3638
1064.58630 33.3952
1077.09277 32.6781
1112.84167 36.9008
1149.97827 32.7634
1154.28601 32.7895
1224.85083 34.9038
1235.36365 34.3396
1301.93640 33.816
1303.58325 33.7642
1312.63989 37.0378
1382.09888 36.6194
1405.78650 39.0858
1496.87793 40.5169
1508.58252 36.0811
1513.63879 34.9889
1517.92883 36.1507
1641.31531 36.3543
1652.74573 39.2934
1692.51965 36.4335
1693.59351 36.5305
1732.30127 36.9532
1741.84680 37.6034
1798.94714 40.3547
1904.57202 40.0283
1967.21094 35.9296
1999.57849 50.681
2079.03906 39.7064
2193.01196 39.716
2193.07593 40.5746
2193.14679 83.8832
2193.19360 50.9395
2193.23047 42.9865
2193.33032 39.2633
2199.14722 46.0832
2230.47583 38.6012
2233.00195 38.6725
2251.48022 36.973
2306.82397 38.5529
2321.98071 43.2325
2336.25073 39.1524
2376.23706 39.384
2401.96045 38.3218
2407.03662 38.75
2412.82690 43.3183
2509.87061 43.4957
2518.24365 42.9567
2581.83887 40.8841
2589.25610 41.1187
2604.16333 39.5403
2702.44482 44.2174
2755.36572 40.3061
2821.68042 42.2736
2877.53369 43.739
3132.92505 52.6877
3181.18164 42.2018
3410.21558 41.6289
3438.37744 44.7569
3455.80688 42.0532
3522.20557 43.323
3542.17969 41.1526
3585.86865 42.2675
3589.87842 45.3237
3816.74097 44.6248
4143.61377 45.2104
4665.90967 51.4426
4751.81982 48.2453
4842.84863 46.7154
4869.92139 49.5661
5172.16699 42.6866
5477.85449 45.9234
5492.18652 49.11
5672.15137 70.377
5853.26904 50.0386
5939.49121 49.7562
5941.34814 46.6136
5979.58740 51.3944
5983.99805 48.3628
END IONS

BEGIN IONS
TITLE=File: "C:\Users\chem-egg\Desktop\HCD Data\S_targeted NCE15_18.raw"; SpectrumID: "1586"; scans: "600,606,612,618,624,630,636,642,648,654,660,666,672,678,684,690,696,702,708,714,720,726,732,738,744,750,756,762,768,774,780,786"
PEPMASS=1758.71838 0.00000
CHARGE=2+
RTINSECONDS=483-540
SCANS=600-786
409.06311 23.68
425.08136 22.4501
455.85709 23.3658
474.54920 48.7694
474.72394 25.0063
474.82285 23.0833
492.18900 38.9666
492.20367 132.839
492.21890 109.76
492.22793 262.56
492.24147 474.189
492.25046 508.841
492.26107 228.761
492.26954 209.99
492.28473 249.038
492.29886 62.301
501.22653 23.1751
502.96201 24.3394
508.61395 25.2889
512.73694 24.474
550.49353 25.678
566.92194 25.5746
583.18781 25.6928
629.37689 24.888
663.23792 28.7483
676.55798 28.5877
678.97119 32.1798
680.01971 26.8656
689.52502 27.8659
720.39038 32.6166
720.39990 25.8383
720.41632 32.7823
720.43329 28.8784
720.45032 29.5889
720.46008 28.5534
720.52911 28.0705
720.54839 61.0589
720.59576 28.5246
722.29053 25.4426
751.78595 29.1763
800.99176 28.2257
810.36096 30.2107
835.54999 28.0202
844.81494 28.2768
854.45831 26.324
877.47864 29.1619
889.28174 27.0561
932.85834 28.3105
1062.49829 29.6869
1063.48938 29.7502
1124.92749 29.214
1138.16064 32.9603
1167.24304 30.9664
1174.53699 29.5006
1209.06226 30.4874
1368.28601 30.6954
1385.89038 30.076
1408.44421 32.3292
1473.50793 34.1053
1495.06934 32.4288
1585.75671 31.5194
1685.74463 34.0562
1776.53149 33.6445
1821.63904 32.6587
1880.52576 41.0762
1895.38928 32.1688
1917.00830 31.5766
1947.13904 34.292
2035.18286 35.993
2050.08008 36.1176
2129.41284 32.6198
2185.49829 33.513
2192.98999 36.2035
2193.15283 34.4861
2193.25977 39.9927
2319.20142 36.3482
2530.38550 38.5772
2679.59790 37.5109
2695.75317 41.3236
2719.98071 35.3975
2833.58203 35.0951
2900.46484 36.3684
3004.76221 36.5759
3276.22876 43.5842
3319.77539 37.6235
3369.19116 35.8794
3417.92407 36.5945
3432.01074 35.5852
3578.23193 36.0172
3640.31348 40.6347
3909.88672 37.2685
3981.82251 38.9129
4204.57764 39.8155
4243.41992 41.6163
4482.52393 40.3389
4701.71338 40.7937
4854.10010 44.5001
4858.90771 60.5979
END IONS

